/forceset/addlong_r/activation	/forceset/recfem_r/activation	/forceset/vaslat_r/activation	/forceset/vasmed_r/activation	/forceset/tibant_r/activation	/forceset/bflh_r/activation	/forceset/semiten_r/activation	/forceset/gaslat_r/activation	/forceset/gasmed_r/activation	/forceset/soleus_r/activation
-0.000556	0.235801	0.067183	-0.023399	-0.006777	0.030748	0.019038	0.104960	0.055044	0.252681
-0.000060	0.251280	0.076313	-0.003147	-0.003946	0.032723	0.022626	0.118282	0.079077	0.263386
0.000448	0.266666	0.085332	0.016786	-0.001170	0.034777	0.026316	0.131417	0.102704	0.274101
0.000967	0.281899	0.094205	0.036321	0.001541	0.036909	0.030107	0.144292	0.125809	0.284793
0.001499	0.296915	0.102899	0.055385	0.004176	0.039120	0.033994	0.156835	0.148282	0.295427
0.002042	0.311647	0.111379	0.073909	0.006724	0.041406	0.037976	0.168985	0.170021	0.305969
0.002596	0.326024	0.119616	0.091830	0.009176	0.043769	0.042051	0.180687	0.190935	0.316382
0.003161	0.339972	0.127577	0.109093	0.011524	0.046204	0.046220	0.191889	0.210944	0.326632
0.003738	0.353416	0.135236	0.125650	0.013761	0.048712	0.050481	0.202543	0.229973	0.336682
0.004327	0.366280	0.142568	0.141460	0.015881	0.051288	0.054836	0.212598	0.247954	0.346497
0.004929	0.378491	0.149550	0.156490	0.017882	0.053931	0.059286	0.222003	0.264824	0.356037
0.005543	0.389978	0.156163	0.170713	0.019758	0.056637	0.063832	0.230710	0.280529	0.365264
0.006171	0.400683	0.162391	0.184109	0.021511	0.059404	0.068477	0.238675	0.295031	0.374133
0.006812	0.410556	0.168222	0.196667	0.023139	0.062228	0.073225	0.245869	0.308304	0.382603
0.007468	0.419562	0.173646	0.208383	0.024645	0.065105	0.078079	0.252280	0.320337	0.390626
0.008139	0.427680	0.178656	0.219256	0.026032	0.068032	0.083045	0.257910	0.331128	0.398156
0.008824	0.434902	0.183246	0.229294	0.027302	0.071006	0.088127	0.262779	0.340692	0.405144
0.009524	0.441233	0.187412	0.238505	0.028460	0.074028	0.093331	0.266913	0.349061	0.411539
0.010240	0.446684	0.191149	0.246903	0.029507	0.077097	0.098660	0.270347	0.356293	0.417295
0.010971	0.451276	0.194456	0.254499	0.030447	0.080213	0.104121	0.273111	0.362459	0.422365
0.011717	0.455028	0.197334	0.261308	0.031282	0.083377	0.109715	0.275241	0.367638	0.426713
0.012478	0.457959	0.199785	0.267342	0.032014	0.086589	0.115446	0.276769	0.371909	0.430309
0.013254	0.460083	0.201812	0.272616	0.032645	0.089850	0.121313	0.277732	0.375349	0.433128
0.014044	0.461410	0.203419	0.277141	0.033178	0.093162	0.127317	0.278169	0.378036	0.435150
0.014849	0.461947	0.204614	0.280926	0.033615	0.096525	0.133456	0.278121	0.380042	0.436366
0.015669	0.461701	0.205408	0.283982	0.033961	0.099940	0.139728	0.277634	0.381437	0.436788
0.016501	0.460681	0.205813	0.286319	0.034219	0.103404	0.146130	0.276753	0.382289	0.436446
0.017346	0.458900	0.205842	0.287952	0.034396	0.106919	0.152658	0.275528	0.382664	0.435388
0.018203	0.456374	0.205509	0.288898	0.034497	0.110482	0.159303	0.274006	0.382625	0.433669
0.019071	0.453129	0.204831	0.289179	0.034528	0.114092	0.166057	0.272238	0.382237	0.431343
0.019948	0.449194	0.203821	0.288824	0.034497	0.117748	0.172910	0.270273	0.381565	0.428467
0.020832	0.444605	0.202495	0.287864	0.034409	0.121448	0.179850	0.268159	0.380674	0.425095
0.021721	0.439406	0.200866	0.286334	0.034272	0.125189	0.186862	0.265945	0.379629	0.421277
0.022615	0.433648	0.198945	0.284273	0.034092	0.128968	0.193935	0.263680	0.378493	0.417064
0.023509	0.427384	0.196742	0.281723	0.033874	0.132784	0.201053	0.261408	0.377328	0.412500
0.024402	0.420674	0.194264	0.278725	0.033625	0.136632	0.208205	0.259175	0.376188	0.407629
0.025291	0.413576	0.191520	0.275324	0.033350	0.140509	0.215378	0.257022	0.375130	0.402493
0.026173	0.406146	0.188518	0.271560	0.033053	0.144408	0.222561	0.254988	0.374201	0.397134
0.027044	0.398440	0.185269	0.267476	0.032739	0.148323	0.229739	0.253110	0.373448	0.391593
0.027903	0.390506	0.181788	0.263108	0.032413	0.152245	0.236899	0.251420	0.372911	0.385909
0.028745	0.382387	0.178089	0.258494	0.032078	0.156167	0.244023	0.249949	0.372628	0.380121
0.029568	0.374125	0.174193	0.253664	0.031738	0.160082	0.251091	0.248723	0.372631	0.374267
0.030369	0.365752	0.170119	0.248649	0.031396	0.163983	0.258082	0.247764	0.372945	0.368383
0.031146	0.357298	0.165890	0.243474	0.031055	0.167866	0.264975	0.247094	0.373592	0.362504
0.031898	0.348787	0.161529	0.238161	0.030718	0.171727	0.271751	0.246728	0.374587	0.356660
0.032627	0.340239	0.157057	0.232731	0.030386	0.175568	0.278392	0.246682	0.375942	0.350881
0.033334	0.331671	0.152497	0.227203	0.030061	0.179392	0.284883	0.246966	0.377659	0.345194
0.034021	0.323096	0.147867	0.221595	0.029744	0.183203	0.291215	0.247588	0.379740	0.339623
0.034689	0.314527	0.143184	0.215924	0.029437	0.187007	0.297380	0.248553	0.382179	0.334192
0.035341	0.305976	0.138466	0.210206	0.029141	0.190811	0.303374	0.249862	0.384965	0.328919
0.035979	0.297452	0.133727	0.204458	0.028856	0.194617	0.309197	0.251512	0.388084	0.323820
0.036605	0.288968	0.128979	0.198695	0.028583	0.198425	0.314848	0.253501	0.391517	0.318907
0.037222	0.280535	0.124238	0.192932	0.028320	0.202234	0.320330	0.255825	0.395243	0.314190
0.037834	0.272164	0.119514	0.187186	0.028069	0.206037	0.325644	0.258478	0.399236	0.309672
0.038445	0.263870	0.114819	0.181471	0.027829	0.209828	0.330788	0.261455	0.403467	0.305354
0.039057	0.255666	0.110164	0.175803	0.027600	0.213597	0.335759	0.264746	0.407901	0.301233
0.039677	0.247568	0.105560	0.170196	0.027383	0.217333	0.340548	0.268341	0.412502	0.297301
0.040309	0.239592	0.101015	0.164663	0.027179	0.221023	0.345150	0.272225	0.417227	0.293550
0.040957	0.231752	0.096540	0.159216	0.026986	0.224656	0.349558	0.276377	0.422029	0.289966
0.041629	0.224066	0.092141	0.153866	0.026804	0.228220	0.353765	0.280779	0.426859	0.286531
0.042329	0.216548	0.087826	0.148623	0.026634	0.231707	0.357766	0.285404	0.431665	0.283225
0.043063	0.209213	0.083603	0.143496	0.026474	0.235107	0.361559	0.290229	0.436400	0.280024
0.043836	0.202072	0.079477	0.138491	0.026325	0.238413	0.365140	0.295228	0.441018	0.276905
0.044653	0.195136	0.075454	0.133613	0.026186	0.241620	0.368506	0.300377	0.445474	0.273843
0.045517	0.188412	0.071539	0.128868	0.026056	0.244721	0.371656	0.305651	0.449725	0.270814
0.046432	0.181903	0.067737	0.124259	0.025934	0.247708	0.374588	0.311025	0.453726	0.267796
0.047402	0.175612	0.064051	0.119788	0.025820	0.250574	0.377296	0.316470	0.457437	0.264772
0.048428	0.169537	0.060485	0.115456	0.025714	0.253313	0.379778	0.321955	0.460820	0.261732
0.049515	0.163677	0.057042	0.111262	0.025616	0.255917	0.382028	0.327444	0.463848	0.258667
0.050663	0.158024	0.053723	0.107204	0.025524	0.258381	0.384040	0.332897	0.466498	0.255574
0.051877	0.152575	0.050530	0.103280	0.025440	0.260695	0.385808	0.338272	0.468759	0.252448
0.053158	0.147323	0.047464	0.099484	0.025361	0.262850	0.387328	0.343520	0.470635	0.249280
0.054509	0.142263	0.044526	0.095812	0.025286	0.264834	0.388593	0.348593	0.472142	0.246062
0.055931	0.137387	0.041714	0.092256	0.025215	0.266634	0.389597	0.353439	0.473306	0.242789
0.057428	0.132691	0.039029	0.088812	0.025145	0.268235	0.390329	0.358008	0.474147	0.239458
0.059001	0.128169	0.036470	0.085472	0.025076	0.269617	0.390778	0.362252	0.474682	0.236073
0.060654	0.123815	0.034033	0.082230	0.025006	0.270760	0.390927	0.366120	0.474924	0.232642
0.062389	0.119625	0.031718	0.079082	0.024934	0.271642	0.390756	0.369565	0.474878	0.229172
0.064208	0.115596	0.029521	0.076021	0.024859	0.272245	0.390244	0.372545	0.474549	0.225670
0.066114	0.111724	0.027439	0.073044	0.024779	0.272551	0.389371	0.375026	0.473938	0.222142
0.068109	0.108007	0.025469	0.070147	0.024693	0.272547	0.388115	0.376984	0.473042	0.218591
0.070196	0.104443	0.023609	0.067328	0.024600	0.272222	0.386454	0.378406	0.471854	0.215022
0.072375	0.101031	0.021853	0.064586	0.024497	0.271569	0.384369	0.379285	0.470362	0.211436
0.074650	0.097768	0.020199	0.061918	0.024384	0.270587	0.381842	0.379617	0.468548	0.207838
0.077021	0.094654	0.018643	0.059324	0.024258	0.269274	0.378861	0.379397	0.466390	0.204232
0.079489	0.091685	0.017181	0.056803	0.024118	0.267636	0.375420	0.378623	0.463863	0.200623
0.082056	0.088859	0.015809	0.054352	0.023960	0.265680	0.371522	0.377299	0.460936	0.197015
0.084721	0.086172	0.014523	0.051971	0.023783	0.263415	0.367183	0.375436	0.457581	0.193411
0.087483	0.083619	0.013320	0.049655	0.023585	0.260851	0.362421	0.373058	0.453771	0.189811
0.090341	0.081198	0.012195	0.047404	0.023365	0.257997	0.357259	0.370192	0.449491	0.186215
0.093294	0.078906	0.011144	0.045216	0.023122	0.254860	0.351721	0.366875	0.444743	0.182620
0.096340	0.076738	0.010165	0.043088	0.022856	0.251447	0.345826	0.363150	0.439539	0.179025
0.099483	0.074694	0.009254	0.041023	0.022566	0.247762	0.339592	0.359063	0.433901	0.175424
0.102726	0.072771	0.008408	0.039019	0.022254	0.243811	0.333039	0.354660	0.427855	0.171812
0.106076	0.070967	0.007624	0.037080	0.021920	0.239606	0.326188	0.349986	0.421440	0.168186
0.109543	0.069280	0.006899	0.035204	0.021564	0.235165	0.319064	0.345084	0.414699	0.164542
0.113137	0.067711	0.006231	0.033395	0.021188	0.230511	0.311694	0.339995	0.407684	0.160881
0.116870	0.066257	0.005617	0.031653	0.020792	0.225671	0.304109	0.334753	0.400446	0.157200
0.120752	0.064920	0.005054	0.029979	0.020377	0.220671	0.296343	0.329392	0.393036	0.153498
0.124793	0.063697	0.004539	0.028372	0.019943	0.215537	0.288433	0.323941	0.385505	0.149775
0.129002	0.062589	0.004072	0.026834	0.019493	0.210297	0.280418	0.318426	0.377904	0.146032
0.133390	0.061596	0.003648	0.025363	0.019026	0.204976	0.272336	0.312871	0.370281	0.142274
0.137963	0.060715	0.003265	0.023960	0.018545	0.199601	0.264226	0.307299	0.362684	0.138501
0.142732	0.059947	0.002921	0.022622	0.018053	0.194198	0.256126	0.301732	0.355155	0.134719
0.147703	0.059286	0.002614	0.021350	0.017551	0.188792	0.248071	0.296195	0.347735	0.130928
0.152881	0.058731	0.002341	0.020140	0.017041	0.183406	0.240094	0.290709	0.340458	0.127131
0.158274	0.058278	0.002100	0.018993	0.016527	0.178061	0.232225	0.285298	0.333357	0.123331
0.163885	0.057921	0.001890	0.017905	0.016010	0.172775	0.224491	0.279983	0.326463	0.119532
0.169715	0.057657	0.001709	0.016877	0.015492	0.167566	0.216916	0.274786	0.319806	0.115739
0.175767	0.057478	0.001555	0.015905	0.014975	0.162447	0.209521	0.269728	0.313414	0.111961
0.182039	0.057379	0.001426	0.014989	0.014461	0.157430	0.202323	0.264829	0.307314	0.108207
0.188527	0.057354	0.001320	0.014126	0.013951	0.152523	0.195337	0.260106	0.301529	0.104489
0.195228	0.057396	0.001237	0.013317	0.013445	0.147736	0.188573	0.255577	0.296081	0.100817
0.202132	0.057502	0.001175	0.012558	0.012946	0.143074	0.182041	0.251257	0.290985	0.097204
0.209229	0.057665	0.001133	0.011850	0.012454	0.138541	0.175748	0.247157	0.286253	0.093657
0.216507	0.057882	0.001109	0.011189	0.011971	0.134141	0.169696	0.243286	0.281893	0.090186
0.223948	0.058147	0.001102	0.010574	0.011496	0.129875	0.163889	0.239650	0.277909	0.086799
0.231533	0.058456	0.001111	0.010005	0.011030	0.125743	0.158327	0.236251	0.274302	0.083500
0.239240	0.058805	0.001135	0.009479	0.010576	0.121745	0.153007	0.233086	0.271069	0.080296
0.247042	0.059190	0.001172	0.008996	0.010133	0.117879	0.147929	0.230152	0.268203	0.077189
0.254911	0.059607	0.001222	0.008552	0.009702	0.114147	0.143088	0.227442	0.265694	0.074184
0.262815	0.060054	0.001282	0.008149	0.009284	0.110547	0.138480	0.224945	0.263529	0.071281
0.270722	0.060528	0.001354	0.007782	0.008880	0.107082	0.134102	0.222649	0.261691	0.068482
0.278598	0.061026	0.001434	0.007452	0.008489	0.103753	0.129950	0.220541	0.260159	0.065787
0.286412	0.061545	0.001523	0.007155	0.008113	0.100561	0.126020	0.218603	0.258910	0.063197
0.294135	0.062082	0.001619	0.006891	0.007751	0.097507	0.122308	0.216820	0.257919	0.060710
0.301742	0.062633	0.001723	0.006658	0.007404	0.094592	0.118812	0.215178	0.257157	0.058328
0.309209	0.063195	0.001831	0.006454	0.007072	0.091819	0.115528	0.213668	0.256595	0.056050
0.316511	0.063763	0.001945	0.006277	0.006755	0.089189	0.112454	0.212282	0.256200	0.053875
0.323630	0.064335	0.002062	0.006126	0.006453	0.086703	0.109590	0.211013	0.255937	0.051803
0.330551	0.064908	0.002182	0.005997	0.006165	0.084364	0.106931	0.209854	0.255768	0.049835
0.337262	0.065482	0.002305	0.005891	0.005893	0.082172	0.104476	0.208796	0.255651	0.047970
0.343751	0.066055	0.002429	0.005804	0.005635	0.080129	0.102218	0.207832	0.255545	0.046209
0.350008	0.066626	0.002555	0.005736	0.005390	0.078233	0.100152	0.206960	0.255413	0.044550
0.356024	0.067195	0.002680	0.005684	0.005160	0.076484	0.098270	0.206180	0.255228	0.042993
0.361788	0.067762	0.002806	0.005647	0.004944	0.074880	0.096564	0.205498	0.254972	0.041535
0.367287	0.068328	0.002930	0.005624	0.004741	0.073419	0.095025	0.204924	0.254638	0.040174
0.372501	0.068893	0.003054	0.005613	0.004551	0.072097	0.093644	0.204470	0.254226	0.038909
0.377410	0.069457	0.003175	0.005614	0.004374	0.070912	0.092415	0.204150	0.253743	0.037735
0.381988	0.070022	0.003294	0.005626	0.004210	0.069861	0.091330	0.203972	0.253205	0.036651
0.386211	0.070586	0.003411	0.005648	0.004059	0.068941	0.090383	0.203946	0.252634	0.035653
0.390053	0.071150	0.003526	0.005680	0.003919	0.068149	0.089568	0.204077	0.252049	0.034738
0.393492	0.071712	0.003637	0.005719	0.003791	0.067485	0.088878	0.204371	0.251469	0.033904
0.396513	0.072271	0.003745	0.005766	0.003676	0.066945	0.088306	0.204828	0.250911	0.033145
0.399103	0.072827	0.003850	0.005820	0.003572	0.066527	0.087845	0.205453	0.250388	0.032458
0.401257	0.073381	0.003951	0.005879	0.003480	0.066231	0.087486	0.206245	0.249911	0.031837
0.402974	0.073934	0.004049	0.005943	0.003400	0.066052	0.087219	0.207206	0.249489	0.031278
0.404252	0.074489	0.004142	0.006012	0.003332	0.065986	0.087038	0.208334	0.249127	0.030776
0.405092	0.075050	0.004232	0.006083	0.003277	0.066028	0.086935	0.209625	0.248827	0.030327
0.405490	0.075620	0.004317	0.006156	0.003236	0.066173	0.086900	0.211076	0.248589	0.029928
0.405439	0.076203	0.004398	0.006230	0.003208	0.066414	0.086928	0.212684	0.248412	0.029577
0.404930	0.076805	0.004474	0.006304	0.003193	0.066744	0.087009	0.214443	0.248292	0.029269
0.403955	0.077431	0.004547	0.006378	0.003194	0.067153	0.087136	0.216351	0.248223	0.029003
0.402512	0.078085	0.004615	0.006450	0.003210	0.067634	0.087298	0.218402	0.248199	0.028775
0.400600	0.078771	0.004680	0.006519	0.003241	0.068177	0.087486	0.220590	0.248211	0.028583
0.398227	0.079494	0.004741	0.006584	0.003289	0.068771	0.087688	0.222910	0.248247	0.028422
0.395403	0.080255	0.004799	0.006646	0.003355	0.069405	0.087895	0.225351	0.248294	0.028290
0.392144	0.081059	0.004853	0.006704	0.003438	0.070068	0.088094	0.227904	0.248337	0.028182
0.388471	0.081907	0.004905	0.006758	0.003542	0.070751	0.088276	0.230556	0.248358	0.028094
0.384405	0.082804	0.004954	0.006808	0.003666	0.071443	0.088430	0.233290	0.248334	0.028022
0.379971	0.083754	0.005000	0.006854	0.003813	0.072135	0.088548	0.236092	0.248245	0.027964
0.375197	0.084758	0.005043	0.006897	0.003984	0.072819	0.088621	0.238942	0.248066	0.027917
0.370107	0.085819	0.005084	0.006938	0.004181	0.073488	0.088640	0.241822	0.247775	0.027877
0.364728	0.086940	0.005122	0.006976	0.004407	0.074135	0.088600	0.244710	0.247349	0.027845
0.359082	0.088121	0.005158	0.007012	0.004663	0.074754	0.088495	0.247585	0.246769	0.027819
0.353190	0.089363	0.005191	0.007046	0.004951	0.075337	0.088320	0.250421	0.246014	0.027797
0.347075	0.090666	0.005222	0.007080	0.005275	0.075877	0.088072	0.253190	0.245063	0.027780
0.340768	0.092030	0.005250	0.007111	0.005637	0.076367	0.087746	0.255861	0.243897	0.027766
0.334301	0.093453	0.005276	0.007142	0.006039	0.076797	0.087338	0.258400	0.242493	0.027755
0.327711	0.094933	0.005299	0.007172	0.006485	0.077161	0.086845	0.260769	0.240830	0.027746
0.321038	0.096466	0.005321	0.007201	0.006978	0.077452	0.086262	0.262926	0.238893	0.027737
0.314321	0.098047	0.005340	0.007229	0.007522	0.077668	0.085587	0.264828	0.236670	0.027727
0.307602	0.099674	0.005358	0.007257	0.008120	0.077805	0.084818	0.266429	0.234154	0.027714
0.300918	0.101340	0.005373	0.007284	0.008775	0.077864	0.083957	0.267688	0.231344	0.027697
0.294307	0.103039	0.005387	0.007311	0.009492	0.077847	0.083008	0.268565	0.228238	0.027673
0.287803	0.104766	0.005399	0.007339	0.010274	0.077756	0.081976	0.269032	0.224838	0.027642
0.281434	0.106512	0.005410	0.007366	0.011126	0.077594	0.080868	0.269066	0.221145	0.027604
0.275228	0.108273	0.005418	0.007394	0.012053	0.077364	0.079693	0.268655	0.217163	0.027559
0.269208	0.110043	0.005426	0.007423	0.013058	0.077069	0.078457	0.267785	0.212897	0.027508
0.263395	0.111816	0.005432	0.007452	0.014148	0.076712	0.077168	0.266448	0.208356	0.027451
0.257810	0.113588	0.005437	0.007483	0.015327	0.076295	0.075834	0.264634	0.203560	0.027390
0.252473	0.115356	0.005441	0.007515	0.016600	0.075819	0.074461	0.262341	0.198532	0.027325
0.247401	0.117114	0.005445	0.007548	0.017972	0.075285	0.073055	0.259573	0.193301	0.027256
0.242610	0.118859	0.005448	0.007583	0.019448	0.074693	0.071621	0.256345	0.187895	0.027183
0.238116	0.120585	0.005451	0.007620	0.021032	0.074044	0.070167	0.252682	0.182343	0.027106
0.233928	0.122285	0.005454	0.007659	0.022729	0.073338	0.068698	0.248616	0.176671	0.027026
0.230057	0.123952	0.005457	0.007700	0.024541	0.072578	0.067221	0.244185	0.170904	0.026943
0.226514	0.125577	0.005459	0.007743	0.026474	0.071767	0.065743	0.239426	0.165068	0.026858
0.223310	0.127154	0.005462	0.007788	0.028529	0.070906	0.064271	0.234375	0.159184	0.026771
0.220456	0.128678	0.005465	0.007835	0.030711	0.070001	0.062812	0.229064	0.153276	0.026681
0.217963	0.130148	0.005468	0.007885	0.033021	0.069055	0.061371	0.223525	0.147365	0.026590
0.215840	0.131568	0.005470	0.007937	0.035464	0.068072	0.059955	0.217783	0.141470	0.026496
0.214095	0.132943	0.005473	0.007991	0.038041	0.067054	0.058568	0.211865	0.135610	0.026398
0.212733	0.134284	0.005477	0.008048	0.040756	0.066005	0.057214	0.205794	0.129800	0.026296
0.211757	0.135601	0.005481	0.008108	0.043612	0.064928	0.055896	0.199595	0.124055	0.026187
0.211168	0.136906	0.005486	0.008171	0.046609	0.063825	0.054616	0.193291	0.118388	0.026071
0.210964	0.138210	0.005493	0.008238	0.049751	0.062697	0.053375	0.186908	0.112813	0.025947
0.211141	0.139523	0.005500	0.008307	0.053038	0.061547	0.052174	0.180468	0.107339	0.025813
0.211691	0.140851	0.005510	0.008379	0.056472	0.060375	0.051012	0.173998	0.101979	0.025670
0.212606	0.142201	0.005521	0.008455	0.060052	0.059182	0.049891	0.167520	0.096740	0.025515
0.213872	0.143578	0.005534	0.008534	0.063777	0.057967	0.048808	0.161058	0.091633	0.025350
0.215473	0.144984	0.005548	0.008616	0.067646	0.056730	0.047764	0.154633	0.086664	0.025172
0.217393	0.146422	0.005564	0.008701	0.071657	0.055473	0.046758	0.148264	0.081842	0.024981
0.219612	0.147892	0.005582	0.008789	0.075806	0.054197	0.045790	0.141967	0.077172	0.024776
0.222110	0.149392	0.005602	0.008880	0.080088	0.052904	0.044860	0.135759	0.072661	0.024556
0.224865	0.150919	0.005623	0.008974	0.084499	0.051599	0.043969	0.129651	0.068312	0.024322
0.227855	0.152472	0.005645	0.009070	0.089034	0.050286	0.043116	0.123656	0.064130	0.024075
0.231058	0.154044	0.005669	0.009169	0.093686	0.048969	0.042300	0.117785	0.060116	0.023815
0.234454	0.155634	0.005694	0.009269	0.098449	0.047652	0.041519	0.112045	0.056272	0.023545
0.238026	0.157239	0.005721	0.009372	0.103314	0.046337	0.040773	0.106446	0.052599	0.023267
0.241758	0.158857	0.005748	0.009476	0.108274	0.045028	0.040061	0.100992	0.049097	0.022982
0.245637	0.160488	0.005776	0.009583	0.113320	0.043725	0.039379	0.095691	0.045764	0.022691
0.249652	0.162133	0.005806	0.009690	0.118446	0.042432	0.038726	0.090547	0.042599	0.022397
0.253789	0.163792	0.005836	0.009800	0.123641	0.041148	0.038100	0.085565	0.039600	0.022100
0.258033	0.165468	0.005866	0.009911	0.128898	0.039874	0.037499	0.080746	0.036765	0.021801
0.262366	0.167162	0.005898	0.010023	0.134208	0.038612	0.036921	0.076093	0.034090	0.021502
0.266767	0.168878	0.005929	0.010136	0.139561	0.037363	0.036367	0.071607	0.031572	0.021203
0.271212	0.170619	0.005960	0.010250	0.144948	0.036128	0.035834	0.067286	0.029207	0.020906
0.275672	0.172388	0.005991	0.010366	0.150357	0.034908	0.035322	0.063131	0.026990	0.020611
0.280118	0.174187	0.006022	0.010482	0.155774	0.033706	0.034833	0.059139	0.024916	0.020319
0.284514	0.176020	0.006052	0.010599	0.161185	0.032523	0.034365	0.055307	0.022980	0.020031
0.288822	0.177887	0.006082	0.010716	0.166575	0.031361	0.033918	0.051634	0.021178	0.019748
0.293004	0.179789	0.006111	0.010833	0.171929	0.030223	0.033493	0.048117	0.019505	0.019470
0.297022	0.181725	0.006140	0.010951	0.177229	0.029110	0.033089	0.044753	0.017955	0.019199
0.300843	0.183691	0.006169	0.011068	0.182458	0.028025	0.032704	0.041541	0.016524	0.018934
0.304438	0.185682	0.006197	0.011185	0.187598	0.026969	0.032338	0.038478	0.015207	0.018676
0.307787	0.187692	0.006224	0.011301	0.192628	0.025943	0.031988	0.035561	0.013999	0.018426
0.310874	0.189713	0.006250	0.011416	0.197531	0.024949	0.031653	0.032790	0.012896	0.018183
0.313693	0.191739	0.006275	0.011531	0.202293	0.023987	0.031331	0.030161	0.011891	0.017949
0.316243	0.193760	0.006299	0.011644	0.206902	0.023056	0.031022	0.027671	0.010980	0.017723
0.318531	0.195772	0.006321	0.011757	0.211348	0.022158	0.030723	0.025319	0.010156	0.017506
0.320566	0.197768	0.006341	0.011867	0.215627	0.021292	0.030435	0.023101	0.009415	0.017297
0.322356	0.199745	0.006359	0.011977	0.219734	0.020457	0.030155	0.021014	0.008750	0.017096
0.323910	0.201700	0.006374	0.012084	0.223670	0.019653	0.029883	0.019057	0.008156	0.016903
0.325235	0.203633	0.006387	0.012190	0.227441	0.018879	0.029617	0.017225	0.007628	0.016718
0.326339	0.205545	0.006397	0.012295	0.231058	0.018133	0.029356	0.015516	0.007159	0.016540
0.327229	0.207439	0.006405	0.012399	0.234535	0.017416	0.029098	0.013926	0.006743	0.016369
0.327909	0.209317	0.006410	0.012502	0.237882	0.016726	0.028843	0.012453	0.006377	0.016206
0.328384	0.211186	0.006412	0.012604	0.241110	0.016062	0.028589	0.011091	0.006055	0.016049
0.328656	0.213052	0.006411	0.012704	0.244225	0.015424	0.028337	0.009839	0.005772	0.015900
0.328729	0.214921	0.006408	0.012803	0.247233	0.014811	0.028085	0.008691	0.005526	0.015758
0.328605	0.216799	0.006403	0.012901	0.250139	0.014224	0.027834	0.007645	0.005314	0.015623
0.328284	0.218693	0.006395	0.012997	0.252950	0.013661	0.027583	0.006696	0.005132	0.015495
0.327767	0.220606	0.006385	0.013092	0.255668	0.013123	0.027333	0.005841	0.004980	0.015374
0.327053	0.222540	0.006373	0.013187	0.258296	0.012611	0.027083	0.005077	0.004854	0.015259
0.326141	0.224496	0.006358	0.013281	0.260835	0.012123	0.026833	0.004400	0.004753	0.015150
0.325030	0.226471	0.006341	0.013374	0.263282	0.011660	0.026581	0.003807	0.004675	0.015047
0.323718	0.228457	0.006321	0.013468	0.265635	0.011221	0.026327	0.003294	0.004618	0.014950
0.322202	0.230447	0.006299	0.013561	0.267890	0.010807	0.026069	0.002859	0.004581	0.014856
0.320478	0.232435	0.006274	0.013654	0.270044	0.010418	0.025805	0.002498	0.004563	0.014767
0.318544	0.234412	0.006247	0.013745	0.272093	0.010052	0.025536	0.002208	0.004560	0.014681
0.316397	0.236372	0.006217	0.013835	0.274033	0.009710	0.025260	0.001987	0.004573	0.014597
0.314032	0.238309	0.006186	0.013923	0.275860	0.009392	0.024976	0.001831	0.004599	0.014514
0.311447	0.240220	0.006153	0.014009	0.277575	0.009097	0.024685	0.001739	0.004638	0.014430
0.308641	0.242105	0.006118	0.014091	0.279183	0.008824	0.024386	0.001708	0.004687	0.014346
0.305612	0.243964	0.006081	0.014170	0.280687	0.008573	0.024080	0.001734	0.004746	0.014260
0.302358	0.245802	0.006043	0.014246	0.282094	0.008343	0.023768	0.001817	0.004815	0.014173
0.298880	0.247627	0.006004	0.014317	0.283413	0.008133	0.023451	0.001953	0.004891	0.014086
0.295176	0.249450	0.005963	0.014384	0.284658	0.007944	0.023131	0.002140	0.004975	0.014000
0.291255	0.251287	0.005922	0.014446	0.285846	0.007774	0.022809	0.002376	0.005065	0.013916
0.287136	0.253155	0.005881	0.014505	0.287000	0.007624	0.022487	0.002659	0.005160	0.013834
0.282848	0.255073	0.005840	0.014559	0.288140	0.007493	0.022167	0.002988	0.005260	0.013755
0.278429	0.257060	0.005799	0.014610	0.289286	0.007380	0.021850	0.003359	0.005363	0.013681
0.273915	0.259136	0.005759	0.014657	0.290453	0.007285	0.021537	0.003772	0.005470	0.013612
0.269342	0.261318	0.005720	0.014700	0.291658	0.007208	0.021229	0.004225	0.005580	0.013550
0.264748	0.263621	0.005682	0.014740	0.292913	0.007147	0.020926	0.004717	0.005691	0.013496
0.260166	0.266057	0.005645	0.014776	0.294227	0.007102	0.020630	0.005245	0.005804	0.013451
0.255632	0.268635	0.005608	0.014807	0.295606	0.007072	0.020339	0.005808	0.005919	0.013416
0.251181	0.271363	0.005573	0.014834	0.297050	0.007056	0.020054	0.006405	0.006034	0.013392
0.246850	0.274248	0.005539	0.014855	0.298560	0.007053	0.019776	0.007035	0.006150	0.013380
0.242674	0.277299	0.005507	0.014871	0.300130	0.007062	0.019505	0.007696	0.006265	0.013380
0.238688	0.280525	0.005476	0.014880	0.301750	0.007082	0.019242	0.008386	0.006380	0.013394
0.234927	0.283938	0.005447	0.014883	0.303409	0.007113	0.018988	0.009105	0.006495	0.013422
0.231423	0.287552	0.005421	0.014881	0.305090	0.007152	0.018745	0.009850	0.006609	0.013465
0.228206	0.291382	0.005397	0.014873	0.306771	0.007200	0.018515	0.010622	0.006722	0.013524
0.225303	0.295446	0.005377	0.014860	0.308430	0.007254	0.018300	0.011417	0.006835	0.013601
0.222740	0.299761	0.005362	0.014842	0.310043	0.007314	0.018100	0.012235	0.006947	0.013697
0.220542	0.304345	0.005350	0.014822	0.311589	0.007379	0.017919	0.013073	0.007059	0.013812
0.218732	0.309217	0.005343	0.014798	0.313048	0.007449	0.017758	0.013930	0.007169	0.013947
0.217329	0.314393	0.005340	0.014771	0.314404	0.007522	0.017617	0.014804	0.007279	0.014102
0.216354	0.319891	0.005343	0.014742	0.315644	0.007598	0.017499	0.015693	0.007388	0.014278
0.215824	0.325727	0.005350	0.014712	0.316755	0.007677	0.017404	0.016594	0.007495	0.014475
0.215755	0.331915	0.005362	0.014680	0.317723	0.007757	0.017333	0.017506	0.007601	0.014693
0.216163	0.338470	0.005379	0.014648	0.318530	0.007839	0.017286	0.018427	0.007706	0.014931
0.217058	0.345404	0.005402	0.014614	0.319157	0.007920	0.017264	0.019354	0.007810	0.015190
0.218451	0.352728	0.005429	0.014579	0.319586	0.008001	0.017267	0.020287	0.007913	0.015470
0.220349	0.360449	0.005461	0.014543	0.319800	0.008081	0.017295	0.021223	0.008015	0.015769
0.222753	0.368571	0.005498	0.014506	0.319788	0.008159	0.017348	0.022159	0.008118	0.016087
0.225665	0.377096	0.005540	0.014469	0.319543	0.008234	0.017425	0.023095	0.008220	0.016423
0.229081	0.386023	0.005586	0.014432	0.319064	0.008308	0.017526	0.024026	0.008322	0.016777
0.232994	0.395346	0.005637	0.014395	0.318355	0.008380	0.017650	0.024952	0.008424	0.017148
0.237396	0.405055	0.005693	0.014358	0.317421	0.008451	0.017796	0.025868	0.008526	0.017535
0.242272	0.415138	0.005752	0.014324	0.316272	0.008521	0.017962	0.026772	0.008629	0.017935
0.247607	0.425576	0.005816	0.014291	0.314922	0.008590	0.018148	0.027662	0.008732	0.018348
0.253380	0.436349	0.005883	0.014262	0.313392	0.008658	0.018352	0.028534	0.008836	0.018772
0.259567	0.447429	0.005954	0.014235	0.311703	0.008726	0.018573	0.029385	0.008940	0.019206
0.266140	0.458785	0.006029	0.014211	0.309879	0.008794	0.018808	0.030212	0.009046	0.019650
0.273069	0.470384	0.006106	0.014189	0.307940	0.008861	0.019057	0.031013	0.009153	0.020104
0.280318	0.482194	0.006185	0.014171	0.305909	0.008928	0.019317	0.031784	0.009262	0.020567
0.287847	0.494185	0.006266	0.014156	0.303802	0.008995	0.019586	0.032521	0.009373	0.021041
0.295617	0.506328	0.006349	0.014143	0.301634	0.009061	0.019863	0.033221	0.009486	0.021524
0.303582	0.518599	0.006433	0.014133	0.299419	0.009125	0.020144	0.033882	0.009603	0.022016
0.311696	0.530972	0.006517	0.014124	0.297166	0.009189	0.020428	0.034500	0.009723	0.022517
0.319910	0.543426	0.006601	0.014117	0.294884	0.009250	0.020711	0.035075	0.009848	0.023027
0.328173	0.555941	0.006685	0.014112	0.292585	0.009309	0.020991	0.035605	0.009976	0.023545
0.336433	0.568500	0.006768	0.014107	0.290278	0.009366	0.021266	0.036088	0.010108	0.024070
0.344638	0.581089	0.006850	0.014104	0.287976	0.009420	0.021533	0.036524	0.010244	0.024601
0.352733	0.593696	0.006930	0.014103	0.285691	0.009471	0.021791	0.036910	0.010385	0.025139
0.360665	0.606312	0.007008	0.014103	0.283435	0.009518	0.022038	0.037247	0.010529	0.025682
0.368378	0.618924	0.007084	0.014104	0.281223	0.009562	0.022273	0.037533	0.010677	0.026229
0.375820	0.631523	0.007158	0.014107	0.279068	0.009603	0.022495	0.037767	0.010828	0.026780
0.382936	0.644097	0.007230	0.014113	0.276984	0.009641	0.022705	0.037948	0.010982	0.027333
0.389674	0.656631	0.007300	0.014121	0.274984	0.009678	0.022902	0.038077	0.011137	0.027888
0.395981	0.669108	0.007368	0.014132	0.273084	0.009714	0.023085	0.038153	0.011294	0.028444
0.401805	0.681503	0.007434	0.014146	0.271297	0.009749	0.023252	0.038178	0.011452	0.029003
0.407094	0.693785	0.007497	0.014164	0.269637	0.009782	0.023404	0.038154	0.011610	0.029563
0.411794	0.705914	0.007557	0.014187	0.268119	0.009816	0.023540	0.038082	0.011767	0.030125
0.415856	0.717845	0.007615	0.014215	0.266758	0.009848	0.023656	0.037964	0.011921	0.030688
0.419241	0.729532	0.007668	0.014248	0.265566	0.009881	0.023753	0.037799	0.012073	0.031252
0.421924	0.740928	0.007718	0.014287	0.264556	0.009912	0.023828	0.037589	0.012220	0.031817
0.423891	0.751989	0.007763	0.014332	0.263736	0.009944	0.023879	0.037334	0.012362	0.032380
0.425141	0.762679	0.007804	0.014383	0.263110	0.009974	0.023905	0.037038	0.012496	0.032942
0.425685	0.772967	0.007839	0.014441	0.262682	0.010004	0.023905	0.036701	0.012624	0.033499
0.425538	0.782831	0.007869	0.014506	0.262451	0.010033	0.023879	0.036326	0.012743	0.034051
0.424721	0.792261	0.007893	0.014577	0.262415	0.010062	0.023826	0.035915	0.012853	0.034595
0.423256	0.801256	0.007913	0.014654	0.262566	0.010090	0.023748	0.035472	0.012954	0.035128
0.421162	0.809828	0.007928	0.014737	0.262899	0.010116	0.023644	0.034998	0.013044	0.035646
0.418453	0.817999	0.007939	0.014825	0.263406	0.010142	0.023517	0.034495	0.013124	0.036147
0.415142	0.825801	0.007946	0.014916	0.264081	0.010166	0.023367	0.033964	0.013193	0.036627
0.411237	0.833272	0.007949	0.015011	0.264920	0.010188	0.023195	0.033408	0.013249	0.037081
0.406749	0.840447	0.007949	0.015108	0.265916	0.010209	0.023004	0.032826	0.013292	0.037507
0.401688	0.847359	0.007946	0.015206	0.267062	0.010229	0.022794	0.032220	0.013322	0.037902
0.396068	0.854034	0.007941	0.015303	0.268348	0.010247	0.022567	0.031590	0.013337	0.038264
0.389906	0.860498	0.007932	0.015399	0.269758	0.010264	0.022323	0.030939	0.013337	0.038592
0.383224	0.866774	0.007921	0.015491	0.271279	0.010279	0.022065	0.030268	0.013322	0.038884
0.376049	0.872886	0.007908	0.015578	0.272892	0.010293	0.021791	0.029579	0.013292	0.039143
0.368415	0.878850	0.007892	0.015658	0.274575	0.010305	0.021503	0.028873	0.013247	0.039367
0.360365	0.884685	0.007873	0.015731	0.276309	0.010315	0.021202	0.028155	0.013188	0.039559
0.351944	0.890412	0.007852	0.015795	0.278075	0.010324	0.020889	0.027428	0.013116	0.039719
0.343202	0.896054	0.007828	0.015849	0.279857	0.010333	0.020563	0.026694	0.013032	0.039848
0.334187	0.901635	0.007802	0.015893	0.281644	0.010341	0.020227	0.025958	0.012936	0.039947
0.324945	0.907169	0.007773	0.015926	0.283421	0.010348	0.019881	0.025223	0.012830	0.040017
0.315517	0.912664	0.007742	0.015949	0.285173	0.010357	0.019528	0.024492	0.012714	0.040059
0.305942	0.918115	0.007709	0.015963	0.286883	0.010366	0.019167	0.023767	0.012590	0.040073
0.296255	0.923503	0.007673	0.015968	0.288530	0.010377	0.018801	0.023051	0.012458	0.040060
0.286489	0.928804	0.007635	0.015965	0.290095	0.010389	0.018432	0.022345	0.012322	0.040023
0.276674	0.933987	0.007596	0.015953	0.291560	0.010403	0.018060	0.021652	0.012181	0.039963
0.266837	0.939024	0.007555	0.015934	0.292909	0.010419	0.017689	0.020972	0.012037	0.039882
0.257005	0.943893	0.007513	0.015908	0.294134	0.010437	0.017317	0.020307	0.011892	0.039781
0.247202	0.948583	0.007470	0.015874	0.295225	0.010456	0.016949	0.019658	0.011746	0.039663
0.237453	0.953090	0.007426	0.015832	0.296177	0.010477	0.016583	0.019025	0.011602	0.039530
0.227778	0.957419	0.007382	0.015782	0.296986	0.010499	0.016223	0.018409	0.011460	0.039383
0.218200	0.961571	0.007338	0.015724	0.297650	0.010523	0.015867	0.017810	0.011321	0.039224
0.208736	0.965540	0.007294	0.015658	0.298178	0.010548	0.015518	0.017231	0.011186	0.039055
0.199406	0.969310	0.007250	0.015583	0.298588	0.010574	0.015176	0.016671	0.011058	0.038879
0.190226	0.972858	0.007205	0.015499	0.298905	0.010602	0.014841	0.016132	0.010935	0.038697
0.181213	0.976156	0.007161	0.015405	0.299161	0.010633	0.014514	0.015614	0.010820	0.038511
0.172381	0.979173	0.007117	0.015302	0.299381	0.010665	0.014195	0.015119	0.010714	0.038324
0.163746	0.981881	0.007072	0.015188	0.299593	0.010701	0.013885	0.014647	0.010616	0.038139
0.155319	0.984252	0.007027	0.015064	0.299817	0.010738	0.013584	0.014198	0.010527	0.037958
0.147112	0.986271	0.006982	0.014930	0.300075	0.010778	0.013291	0.013774	0.010448	0.037783
0.139136	0.987928	0.006937	0.014787	0.300383	0.010821	0.013008	0.013375	0.010380	0.037615
0.131401	0.989227	0.006892	0.014633	0.300758	0.010866	0.012735	0.013003	0.010323	0.037456
0.123912	0.990175	0.006847	0.014469	0.301217	0.010914	0.012471	0.012658	0.010277	0.037306
0.116676	0.990786	0.006802	0.014297	0.301775	0.010963	0.012217	0.012341	0.010243	0.037167
0.109698	0.991076	0.006757	0.014118	0.302444	0.011016	0.011973	0.012054	0.010220	0.037040
0.102980	0.991058	0.006714	0.013932	0.303231	0.011070	0.011741	0.011797	0.010208	0.036924
0.096524	0.990741	0.006671	0.013743	0.304141	0.011126	0.011519	0.011571	0.010207	0.036821
0.090329	0.990125	0.006631	0.013551	0.305172	0.011184	0.011310	0.011376	0.010218	0.036730
0.084393	0.989201	0.006592	0.013358	0.306321	0.011243	0.011114	0.011212	0.010238	0.036651
0.078714	0.987962	0.006556	0.013165	0.307584	0.011305	0.010931	0.011080	0.010269	0.036585
0.073288	0.986400	0.006522	0.012974	0.308955	0.011369	0.010761	0.010980	0.010310	0.036531
0.068110	0.984518	0.006492	0.012786	0.310429	0.011435	0.010606	0.010912	0.010360	0.036490
0.063176	0.982323	0.006464	0.012602	0.312004	0.011505	0.010464	0.010876	0.010419	0.036463
0.058481	0.979835	0.006441	0.012423	0.313677	0.011578	0.010338	0.010871	0.010487	0.036449
0.054018	0.977080	0.006422	0.012251	0.315440	0.011656	0.010226	0.010899	0.010562	0.036448
0.049782	0.974092	0.006407	0.012086	0.317288	0.011739	0.010129	0.010959	0.010646	0.036462
0.045768	0.970905	0.006398	0.011931	0.319208	0.011829	0.010047	0.011051	0.010736	0.036490
0.041968	0.967550	0.006395	0.011785	0.321189	0.011927	0.009981	0.011176	0.010832	0.036533
0.038376	0.964050	0.006398	0.011651	0.323215	0.012033	0.009931	0.011333	0.010935	0.036590
0.034986	0.960429	0.006408	0.011528	0.325273	0.012148	0.009896	0.011524	0.011044	0.036662
0.031792	0.956715	0.006426	0.011418	0.327349	0.012272	0.009878	0.011748	0.011159	0.036749
0.028788	0.952945	0.006451	0.011321	0.329435	0.012407	0.009876	0.012005	0.011278	0.036850
0.025966	0.949162	0.006485	0.011239	0.331522	0.012553	0.009891	0.012296	0.011403	0.036965
0.023323	0.945418	0.006528	0.011171	0.333601	0.012711	0.009923	0.012619	0.011531	0.037092
0.020851	0.941763	0.006579	0.011118	0.335660	0.012880	0.009974	0.012976	0.011663	0.037230
0.018545	0.938240	0.006639	0.011080	0.337685	0.013062	0.010043	0.013364	0.011797	0.037377
0.016399	0.934883	0.006709	0.011059	0.339656	0.013257	0.010132	0.013784	0.011934	0.037529
0.014407	0.931715	0.006788	0.011053	0.341554	0.013467	0.010240	0.014234	0.012071	0.037686
0.012563	0.928749	0.006876	0.011065	0.343355	0.013692	0.010367	0.014714	0.012209	0.037845
0.010861	0.925990	0.006973	0.011093	0.345044	0.013933	0.010514	0.015223	0.012345	0.038004
0.009294	0.923438	0.007080	0.011137	0.346609	0.014191	0.010681	0.015758	0.012480	0.038161
0.007857	0.921084	0.007195	0.011197	0.348043	0.014468	0.010868	0.016319	0.012612	0.038314
0.006543	0.918910	0.007320	0.011273	0.349345	0.014766	0.011074	0.016905	0.012740	0.038458
0.005346	0.916890	0.007453	0.011364	0.350516	0.015084	0.011300	0.017513	0.012863	0.038592
0.004260	0.914989	0.007595	0.011470	0.351561	0.015425	0.011546	0.018142	0.012981	0.038713
0.003278	0.913171	0.007745	0.011589	0.352488	0.015791	0.011810	0.018790	0.013093	0.038819
0.002395	0.911399	0.007902	0.011721	0.353306	0.016181	0.012093	0.019455	0.013198	0.038909
0.001605	0.909630	0.008067	0.011865	0.354033	0.016596	0.012394	0.020136	0.013295	0.038983
0.000901	0.907813	0.008237	0.012020	0.354689	0.017038	0.012713	0.020830	0.013383	0.039041
0.000279	0.905895	0.008413	0.012184	0.355300	0.017507	0.013048	0.021535	0.013463	0.039082
-0.000267	0.903824	0.008594	0.012357	0.355888	0.018002	0.013398	0.022248	0.013532	0.039106
-0.000742	0.901560	0.008779	0.012538	0.356477	0.018525	0.013762	0.022968	0.013589	0.039112
-0.001151	0.899074	0.008968	0.012726	0.357095	0.019075	0.014139	0.023692	0.013635	0.039097
-0.001499	0.896350	0.009160	0.012921	0.357768	0.019651	0.014527	0.024417	0.013667	0.039061
-0.001791	0.893378	0.009355	0.013121	0.358525	0.020254	0.014925	0.025139	0.013685	0.039000
-0.002030	0.890150	0.009551	0.013328	0.359391	0.020883	0.015331	0.025855	0.013688	0.038914
-0.002221	0.886650	0.009749	0.013540	0.360390	0.021537	0.015744	0.026562	0.013676	0.038800
-0.002369	0.882861	0.009948	0.013758	0.361543	0.022215	0.016163	0.027255	0.013649	0.038660
-0.002476	0.878768	0.010147	0.013981	0.362869	0.022917	0.016587	0.027930	0.013607	0.038491
-0.002545	0.874365	0.010346	0.014209	0.364382	0.023641	0.017015	0.028581	0.013552	0.038296
-0.002580	0.869657	0.010544	0.014443	0.366096	0.024387	0.017446	0.029203	0.013483	0.038075
-0.002584	0.864658	0.010740	0.014682	0.368025	0.025154	0.017878	0.029792	0.013402	0.037828
-0.002559	0.859385	0.010935	0.014926	0.370178	0.025939	0.018312	0.030341	0.013309	0.037557
-0.002509	0.853859	0.011128	0.015175	0.372566	0.026743	0.018746	0.030845	0.013204	0.037263
-0.002436	0.848092	0.011318	0.015430	0.375192	0.027563	0.019179	0.031298	0.013088	0.036947
-0.002342	0.842089	0.011505	0.015689	0.378057	0.028399	0.019610	0.031696	0.012962	0.036610
-0.002231	0.835851	0.011690	0.015954	0.381154	0.029249	0.020038	0.032034	0.012826	0.036251
-0.002105	0.829378	0.011871	0.016223	0.384473	0.030114	0.020462	0.032310	0.012682	0.035873
-0.001965	0.822672	0.012050	0.016498	0.387999	0.030991	0.020882	0.032521	0.012529	0.035474
-0.001814	0.815742	0.012225	0.016777	0.391710	0.031882	0.021295	0.032666	0.012370	0.035057
-0.001653	0.808603	0.012397	0.017061	0.395583	0.032783	0.021701	0.032743	0.012205	0.034624
-0.001486	0.801276	0.012566	0.017349	0.399590	0.033696	0.022098	0.032752	0.012035	0.034175
-0.001312	0.793781	0.012730	0.017641	0.403700	0.034619	0.022486	0.032692	0.011863	0.033713
-0.001134	0.786139	0.012891	0.017935	0.407884	0.035550	0.022861	0.032562	0.011688	0.033240
-0.000953	0.778367	0.013047	0.018230	0.412106	0.036488	0.023224	0.032365	0.011511	0.032758
-0.000770	0.770476	0.013198	0.018525	0.416335	0.037431	0.023574	0.032106	0.011334	0.032270
-0.000586	0.762468	0.013342	0.018819	0.420537	0.038375	0.023909	0.031788	0.011158	0.031777
-0.000404	0.754336	0.013480	0.019109	0.424678	0.039320	0.024228	0.031419	0.010982	0.031280
-0.000223	0.746071	0.013611	0.019394	0.428718	0.040260	0.024531	0.031003	0.010809	0.030782
-0.000046	0.737659	0.013732	0.019672	0.432614	0.041195	0.024818	0.030547	0.010638	0.030284
0.000127	0.729088	0.013845	0.019940	0.436323	0.042122	0.025088	0.030056	0.010470	0.029786
0.000295	0.720352	0.013949	0.020198	0.439804	0.043038	0.025341	0.029535	0.010306	0.029290
0.000457	0.711447	0.014042	0.020444	0.443018	0.043942	0.025577	0.028989	0.010147	0.028797
0.000613	0.702382	0.014125	0.020677	0.445933	0.044833	0.025797	0.028422	0.009993	0.028307
0.000761	0.693169	0.014198	0.020896	0.448524	0.045709	0.026001	0.027839	0.009844	0.027822
0.000902	0.683834	0.014260	0.021101	0.450785	0.046570	0.026190	0.027242	0.009701	0.027343
0.001034	0.674408	0.014312	0.021291	0.452728	0.047415	0.026363	0.026635	0.009564	0.026870
0.001158	0.664931	0.014353	0.021467	0.454372	0.048242	0.026521	0.026021	0.009434	0.026404
0.001273	0.655443	0.014383	0.021627	0.455740	0.049050	0.026663	0.025403	0.009309	0.025947
0.001378	0.645981	0.014403	0.021771	0.456854	0.049839	0.026788	0.024782	0.009191	0.025498
0.001474	0.636577	0.014412	0.021900	0.457735	0.050605	0.026897	0.024162	0.009079	0.025060
0.001560	0.627261	0.014410	0.022011	0.458404	0.051348	0.026987	0.023542	0.008974	0.024632
0.001636	0.618060	0.014396	0.022105	0.458880	0.052064	0.027059	0.022926	0.008874	0.024216
0.001702	0.609003	0.014370	0.022180	0.459176	0.052752	0.027111	0.022315	0.008781	0.023814
0.001757	0.600119	0.014332	0.022237	0.459304	0.053406	0.027143	0.021709	0.008693	0.023425
0.001803	0.591437	0.014282	0.022273	0.459273	0.054024	0.027155	0.021110	0.008610	0.023052
0.001839	0.582987	0.014218	0.022289	0.459095	0.054602	0.027148	0.020519	0.008533	0.022694
0.001865	0.574800	0.014141	0.022284	0.458778	0.055134	0.027122	0.019936	0.008460	0.022353
0.001882	0.566908	0.014051	0.022258	0.458331	0.055618	0.027078	0.019364	0.008392	0.022030
0.001889	0.559344	0.013948	0.022211	0.457755	0.056051	0.027018	0.018802	0.008330	0.021727
0.001888	0.552139	0.013832	0.022143	0.457055	0.056430	0.026943	0.018253	0.008271	0.021443
0.001877	0.545321	0.013705	0.022057	0.456234	0.056753	0.026855	0.017716	0.008218	0.021181
0.001859	0.538919	0.013566	0.021951	0.455305	0.057020	0.026755	0.017193	0.008169	0.020940
0.001834	0.532958	0.013417	0.021828	0.454290	0.057232	0.026642	0.016683	0.008124	0.020721
0.001801	0.527464	0.013258	0.021688	0.453220	0.057388	0.026519	0.016188	0.008084	0.020524
0.001761	0.522460	0.013091	0.021533	0.452131	0.057491	0.026385	0.015707	0.008048	0.020349
0.001716	0.517964	0.012914	0.021363	0.451060	0.057542	0.026241	0.015240	0.008015	0.020195
0.001665	0.513991	0.012731	0.021181	0.450045	0.057542	0.026085	0.014787	0.007985	0.020062
0.001609	0.510548	0.012540	0.020988	0.449129	0.057491	0.025918	0.014349	0.007959	0.019949
0.001549	0.507641	0.012342	0.020783	0.448354	0.057390	0.025739	0.013923	0.007935	0.019857
0.001485	0.505274	0.012138	0.020569	0.447758	0.057239	0.025547	0.013511	0.007914	0.019785
0.001420	0.503449	0.011929	0.020346	0.447378	0.057038	0.025343	0.013112	0.007895	0.019732
0.001353	0.502169	0.011715	0.020114	0.447247	0.056787	0.025126	0.012726	0.007878	0.019698
0.001286	0.501431	0.011497	0.019874	0.447395	0.056487	0.024897	0.012354	0.007864	0.019683
0.001219	0.501227	0.011275	0.019627	0.447846	0.056139	0.024656	0.011994	0.007850	0.019687
0.001154	0.501549	0.011050	0.019372	0.448619	0.055746	0.024404	0.011649	0.007839	0.019710
0.001092	0.502389	0.010823	0.019111	0.449727	0.055311	0.024142	0.011318	0.007829	0.019750
0.001035	0.503740	0.010596	0.018843	0.451183	0.054839	0.023871	0.011001	0.007820	0.019808
0.000982	0.505598	0.010368	0.018571	0.452997	0.054333	0.023592	0.010699	0.007813	0.019882
0.000936	0.507956	0.010142	0.018294	0.455187	0.053799	0.023306	0.010412	0.007806	0.019971
0.000897	0.510804	0.009918	0.018014	0.457770	0.053242	0.023015	0.010140	0.007800	0.020073
0.000868	0.514128	0.009697	0.017733	0.460767	0.052668	0.022718	0.009882	0.007794	0.020188
0.000850	0.517908	0.009480	0.017452	0.464200	0.052081	0.022418	0.009638	0.007788	0.020314
0.000844	0.522122	0.009269	0.017172	0.468083	0.051488	0.022113	0.009408	0.007783	0.020449
0.000852	0.526747	0.009063	0.016896	0.472427	0.050892	0.021806	0.009191	0.007777	0.020591
0.000877	0.531760	0.008865	0.016625	0.477239	0.050297	0.021496	0.008987	0.007771	0.020740
0.000919	0.537135	0.008675	0.016359	0.482525	0.049707	0.021184	0.008795	0.007764	0.020893
0.000980	0.542845	0.008493	0.016101	0.488290	0.049124	0.020870	0.008616	0.007757	0.021049
0.001063	0.548854	0.008320	0.015850	0.494542	0.048554	0.020555	0.008448	0.007749	0.021205
0.001169	0.555120	0.008157	0.015608	0.501285	0.047999	0.020241	0.008292	0.007740	0.021359
0.001301	0.561593	0.008004	0.015375	0.508521	0.047462	0.019928	0.008146	0.007731	0.021511
0.001459	0.568216	0.007862	0.015151	0.516246	0.046948	0.019617	0.008011	0.007722	0.021658
0.001647	0.574924	0.007731	0.014936	0.524451	0.046460	0.019310	0.007886	0.007711	0.021800
0.001867	0.581643	0.007611	0.014731	0.533121	0.046001	0.019007	0.007770	0.007700	0.021935
0.002121	0.588295	0.007503	0.014535	0.542236	0.045573	0.018710	0.007664	0.007688	0.022063
0.002411	0.594796	0.007407	0.014349	0.551767	0.045182	0.018420	0.007567	0.007675	0.022184
0.002739	0.601062	0.007322	0.014172	0.561683	0.044830	0.018137	0.007479	0.007660	0.022297
0.003109	0.607015	0.007249	0.014004	0.571947	0.044521	0.017862	0.007400	0.007644	0.022404
0.003523	0.612580	0.007187	0.013845	0.582522	0.044257	0.017597	0.007329	0.007625	0.022502
0.003983	0.617695	0.007136	0.013696	0.593368	0.044043	0.017341	0.007266	0.007605	0.022591
0.004493	0.622308	0.007095	0.013556	0.604441	0.043882	0.017096	0.007212	0.007582	0.022672
0.005055	0.626377	0.007065	0.013425	0.615691	0.043776	0.016862	0.007165	0.007558	0.022743
0.005672	0.629862	0.007044	0.013304	0.627063	0.043727	0.016639	0.007127	0.007531	0.022803
0.006347	0.632722	0.007032	0.013193	0.638506	0.043738	0.016427	0.007097	0.007503	0.022854
0.007082	0.634912	0.007028	0.013090	0.649965	0.043810	0.016225	0.007076	0.007473	0.022896
0.007881	0.636388	0.007031	0.012997	0.661392	0.043945	0.016035	0.007064	0.007443	0.022928
0.008747	0.637107	0.007041	0.012913	0.672738	0.044144	0.015854	0.007061	0.007412	0.022954
0.009682	0.637040	0.007055	0.012837	0.683953	0.044406	0.015683	0.007068	0.007381	0.022973
0.010690	0.636170	0.007074	0.012770	0.694983	0.044733	0.015521	0.007084	0.007350	0.022988
0.011774	0.634496	0.007096	0.012711	0.705770	0.045124	0.015367	0.007110	0.007319	0.023001
0.012938	0.632034	0.007120	0.012659	0.716251	0.045581	0.015222	0.007146	0.007289	0.023011
0.014184	0.628816	0.007146	0.012615	0.726369	0.046103	0.015084	0.007190	0.007259	0.023021
0.015515	0.624886	0.007173	0.012578	0.736075	0.046693	0.014954	0.007244	0.007231	0.023030
0.016934	0.620295	0.007200	0.012548	0.745325	0.047351	0.014831	0.007308	0.007203	0.023039
0.018444	0.615094	0.007227	0.012524	0.754078	0.048078	0.014716	0.007380	0.007176	0.023050
0.020046	0.609331	0.007253	0.012505	0.762292	0.048875	0.014609	0.007461	0.007152	0.023061
0.021744	0.603051	0.007278	0.012493	0.769930	0.049742	0.014510	0.007549	0.007129	0.023075
0.023539	0.596300	0.007301	0.012486	0.776957	0.050680	0.014418	0.007646	0.007108	0.023090
0.025432	0.589128	0.007323	0.012484	0.783334	0.051688	0.014334	0.007750	0.007089	0.023108
0.027425	0.581585	0.007341	0.012487	0.789018	0.052766	0.014257	0.007860	0.007072	0.023129
0.029518	0.573727	0.007357	0.012495	0.793955	0.053911	0.014187	0.007976	0.007058	0.023154
0.031714	0.565609	0.007368	0.012508	0.798087	0.055122	0.014123	0.008096	0.007045	0.023184
0.034012	0.557287	0.007376	0.012526	0.801349	0.056396	0.014065	0.008221	0.007035	0.023220
0.036413	0.548814	0.007380	0.012548	0.803680	0.057731	0.014012	0.008350	0.007027	0.023261
0.038918	0.540238	0.007379	0.012575	0.805024	0.059122	0.013962	0.008480	0.007021	0.023309
0.041527	0.531604	0.007374	0.012604	0.805335	0.060567	0.013917	0.008612	0.007016	0.023365
0.044239	0.522951	0.007364	0.012637	0.804577	0.062059	0.013874	0.008745	0.007013	0.023429
0.047053	0.514308	0.007350	0.012671	0.802718	0.063592	0.013833	0.008876	0.007010	0.023502
0.049970	0.505700	0.007332	0.012707	0.799736	0.065160	0.013795	0.009006	0.007007	0.023585
0.052987	0.497145	0.007310	0.012742	0.795628	0.066755	0.013759	0.009134	0.007004	0.023677
0.056104	0.488652	0.007284	0.012777	0.790414	0.068368	0.013725	0.009257	0.007000	0.023780
0.059317	0.480228	0.007255	0.012809	0.784125	0.069990	0.013693	0.009377	0.006996	0.023892
0.062626	0.471875	0.007223	0.012840	0.776798	0.071612	0.013663	0.009492	0.006990	0.024013
0.066027	0.463594	0.007187	0.012867	0.768465	0.073226	0.013635	0.009602	0.006982	0.024143
0.069517	0.455386	0.007149	0.012891	0.759164	0.074824	0.013608	0.009706	0.006973	0.024279
0.073093	0.447246	0.007108	0.012912	0.748939	0.076399	0.013583	0.009804	0.006962	0.024421
0.076751	0.439166	0.007063	0.012928	0.737840	0.077945	0.013559	0.009896	0.006948	0.024567
0.080484	0.431135	0.007016	0.012941	0.725923	0.079458	0.013535	0.009981	0.006933	0.024717
0.084288	0.423143	0.006965	0.012949	0.713240	0.080933	0.013513	0.010061	0.006915	0.024869
0.088154	0.415182	0.006910	0.012954	0.699849	0.082365	0.013492	0.010135	0.006895	0.025022
0.092074	0.407250	0.006853	0.012954	0.685815	0.083748	0.013470	0.010202	0.006873	0.025175
0.096039	0.399349	0.006791	0.012950	0.671210	0.085077	0.013448	0.010265	0.006849	0.025327
0.100038	0.391481	0.006727	0.012942	0.656107	0.086345	0.013426	0.010322	0.006823	0.025477
0.104059	0.383653	0.006659	0.012930	0.640578	0.087545	0.013402	0.010374	0.006795	0.025622
0.108088	0.375866	0.006589	0.012915	0.624687	0.088671	0.013377	0.010420	0.006766	0.025762
0.112111	0.368119	0.006515	0.012894	0.608495	0.089715	0.013350	0.010461	0.006734	0.025895
0.116112	0.360406	0.006438	0.012870	0.592064	0.090672	0.013320	0.010497	0.006701	0.026019
0.120074	0.352718	0.006358	0.012842	0.575460	0.091537	0.013287	0.010527	0.006666	0.026131
0.123980	0.345047	0.006276	0.012810	0.558753	0.092305	0.013251	0.010553	0.006628	0.026232
0.127812	0.337383	0.006191	0.012775	0.542019	0.092971	0.013211	0.010574	0.006589	0.026318
0.131549	0.329722	0.006103	0.012737	0.525332	0.093532	0.013168	0.010590	0.006548	0.026389
0.135172	0.322065	0.006013	0.012696	0.508765	0.093986	0.013120	0.010602	0.006505	0.026445
0.138661	0.314416	0.005920	0.012653	0.492384	0.094334	0.013069	0.010610	0.006461	0.026485
0.141996	0.306785	0.005826	0.012608	0.476251	0.094574	0.013013	0.010615	0.006415	0.026509
0.145153	0.299185	0.005730	0.012562	0.460423	0.094707	0.012953	0.010615	0.006368	0.026515
0.148113	0.291630	0.005633	0.012514	0.444951	0.094732	0.012888	0.010612	0.006321	0.026502
0.150855	0.284129	0.005536	0.012464	0.429884	0.094648	0.012819	0.010605	0.006273	0.026471
0.153357	0.276695	0.005438	0.012413	0.415264	0.094453	0.012745	0.010594	0.006226	0.026420
0.155599	0.269333	0.005340	0.012361	0.401127	0.094146	0.012664	0.010578	0.006179	0.026349
0.157560	0.262051	0.005243	0.012308	0.387506	0.093727	0.012579	0.010559	0.006134	0.026258
0.159222	0.254855	0.005146	0.012253	0.374431	0.093197	0.012487	0.010535	0.006090	0.026149
0.160564	0.247750	0.005050	0.012197	0.361927	0.092557	0.012389	0.010507	0.006048	0.026021
0.161567	0.240743	0.004955	0.012140	0.350020	0.091811	0.012284	0.010475	0.006009	0.025876
0.162213	0.233842	0.004861	0.012082	0.338738	0.090964	0.012172	0.010439	0.005972	0.025713
0.162485	0.227053	0.004770	0.012022	0.328107	0.090021	0.012053	0.010399	0.005937	0.025532
0.162376	0.220386	0.004680	0.011961	0.318147	0.088987	0.011925	0.010355	0.005905	0.025335
0.161887	0.213851	0.004592	0.011899	0.308878	0.087869	0.011789	0.010307	0.005876	0.025122
0.161032	0.207460	0.004507	0.011837	0.300315	0.086672	0.011644	0.010254	0.005849	0.024892
0.159831	0.201224	0.004425	0.011775	0.292467	0.085403	0.011490	0.010197	0.005825	0.024647
0.158306	0.195156	0.004346	0.011714	0.285344	0.084065	0.011328	0.010135	0.005804	0.024388
0.156482	0.189266	0.004271	0.011655	0.278951	0.082661	0.011156	0.010069	0.005785	0.024114
0.154382	0.183565	0.004199	0.011596	0.273292	0.081196	0.010976	0.009998	0.005770	0.023829
0.152030	0.178059	0.004131	0.011541	0.268364	0.079670	0.010787	0.009923	0.005757	0.023533
0.149448	0.172753	0.004068	0.011487	0.264164	0.078086	0.010590	0.009844	0.005748	0.023227
0.146657	0.167652	0.004009	0.011437	0.260683	0.076447	0.010387	0.009761	0.005743	0.022912
0.143677	0.162759	0.003954	0.011389	0.257911	0.074757	0.010179	0.009674	0.005741	0.022590
0.140530	0.158075	0.003903	0.011345	0.255833	0.073020	0.009966	0.009584	0.005743	0.022260
0.137236	0.153603	0.003857	0.011304	0.254434	0.071241	0.009752	0.009491	0.005749	0.021925
0.133817	0.149340	0.003815	0.011265	0.253694	0.069428	0.009537	0.009395	0.005760	0.021586
0.130294	0.145285	0.003777	0.011229	0.253591	0.067586	0.009324	0.009296	0.005775	0.021243
0.126687	0.141432	0.003743	0.011196	0.254103	0.065722	0.009114	0.009196	0.005794	0.020899
0.123016	0.137776	0.003713	0.011165	0.255208	0.063842	0.008910	0.009094	0.005817	0.020554
0.119297	0.134307	0.003686	0.011136	0.256880	0.061953	0.008712	0.008990	0.005845	0.020208
0.115549	0.131017	0.003663	0.011110	0.259094	0.060060	0.008524	0.008884	0.005877	0.019863
0.111785	0.127893	0.003642	0.011086	0.261819	0.058168	0.008348	0.008777	0.005912	0.019519
0.108019	0.124926	0.003624	0.011065	0.265027	0.056285	0.008184	0.008668	0.005951	0.019176
0.104263	0.122102	0.003609	0.011048	0.268689	0.054415	0.008035	0.008558	0.005994	0.018836
0.100527	0.119406	0.003597	0.011033	0.272774	0.052564	0.007904	0.008447	0.006039	0.018497
0.096824	0.116824	0.003586	0.011021	0.277251	0.050740	0.007791	0.008335	0.006087	0.018162
0.093165	0.114344	0.003578	0.011013	0.282087	0.048949	0.007700	0.008223	0.006138	0.017831
0.089561	0.111955	0.003572	0.011008	0.287248	0.047197	0.007633	0.008111	0.006191	0.017503
0.086023	0.109648	0.003567	0.011006	0.292698	0.045488	0.007592	0.007999	0.006247	0.017180
0.082564	0.107418	0.003564	0.011008	0.298402	0.043830	0.007579	0.007889	0.006304	0.016862
0.079192	0.105261	0.003564	0.011014	0.304325	0.042227	0.007596	0.007779	0.006364	0.016550
0.075917	0.103174	0.003565	0.011025	0.310428	0.040685	0.007645	0.007671	0.006426	0.016244
0.072746	0.101153	0.003569	0.011041	0.316673	0.039209	0.007727	0.007564	0.006490	0.015944
0.069686	0.099193	0.003575	0.011063	0.323018	0.037805	0.007847	0.007457	0.006555	0.015651
0.066744	0.097291	0.003583	0.011090	0.329421	0.036478	0.008004	0.007352	0.006622	0.015364
0.063924	0.095444	0.003593	0.011124	0.335843	0.035233	0.008203	0.007249	0.006690	0.015085
0.061231	0.093647	0.003605	0.011164	0.342250	0.034074	0.008446	0.007146	0.006759	0.014812
0.058669	0.091894	0.003619	0.011211	0.348613	0.033006	0.008735	0.007045	0.006828	0.014546
0.056240	0.090182	0.003635	0.011264	0.354905	0.032034	0.009074	0.006945	0.006898	0.014287
0.053949	0.088507	0.003653	0.011323	0.361102	0.031162	0.009465	0.006847	0.006967	0.014034
0.051798	0.086866	0.003672	0.011388	0.367180	0.030394	0.009913	0.006749	0.007036	0.013787
0.049788	0.085259	0.003692	0.011459	0.373120	0.029734	0.010420	0.006653	0.007104	0.013546
0.047923	0.083685	0.003714	0.011535	0.378908	0.029188	0.010989	0.006558	0.007171	0.013311
0.046203	0.082142	0.003736	0.011616	0.384530	0.028758	0.011623	0.006465	0.007236	0.013082
0.044629	0.080630	0.003759	0.011701	0.389977	0.028448	0.012326	0.006373	0.007299	0.012857
0.043203	0.079148	0.003783	0.011790	0.395252	0.028263	0.013100	0.006283	0.007361	0.012638
0.041923	0.077694	0.003806	0.011882	0.400363	0.028206	0.013948	0.006195	0.007420	0.012425
0.040790	0.076268	0.003830	0.011977	0.405326	0.028279	0.014874	0.006109	0.007478	0.012217
0.039803	0.074868	0.003854	0.012073	0.410154	0.028486	0.015881	0.006025	0.007534	0.012017
0.038963	0.073494	0.003878	0.012169	0.414863	0.028829	0.016973	0.005943	0.007588	0.011824
0.038267	0.072148	0.003902	0.012264	0.419466	0.029311	0.018151	0.005864	0.007641	0.011640
0.037715	0.070830	0.003925	0.012357	0.423976	0.029933	0.019421	0.005787	0.007694	0.011466
0.037305	0.069542	0.003947	0.012448	0.428403	0.030697	0.020785	0.005714	0.007746	0.011302
0.037036	0.068285	0.003969	0.012534	0.432754	0.031604	0.022248	0.005643	0.007799	0.011149
0.036905	0.067058	0.003990	0.012615	0.437032	0.032655	0.023813	0.005576	0.007851	0.011008
0.036909	0.065862	0.004011	0.012690	0.441233	0.033853	0.025485	0.005513	0.007905	0.010878
0.037046	0.064695	0.004032	0.012760	0.445347	0.035198	0.027266	0.005454	0.007960	0.010761
0.037311	0.063556	0.004052	0.012823	0.449359	0.036692	0.029161	0.005399	0.008016	0.010656
0.037702	0.062440	0.004073	0.012881	0.453249	0.038338	0.031173	0.005348	0.008074	0.010563
0.038214	0.061345	0.004094	0.012933	0.456992	0.040136	0.033306	0.005302	0.008134	0.010483
0.038843	0.060267	0.004115	0.012979	0.460561	0.042091	0.035562	0.005260	0.008195	0.010415
0.039584	0.059203	0.004137	0.013018	0.463926	0.044204	0.037943	0.005223	0.008258	0.010360
0.040432	0.058151	0.004161	0.013051	0.467055	0.046477	0.040451	0.005189	0.008322	0.010316
0.041382	0.057110	0.004185	0.013078	0.469914	0.048913	0.043088	0.005160	0.008388	0.010285
0.042428	0.056079	0.004210	0.013097	0.472461	0.051512	0.045856	0.005135	0.008455	0.010265
0.043563	0.055061	0.004238	0.013108	0.474654	0.054277	0.048755	0.005113	0.008522	0.010257
0.044780	0.054056	0.004267	0.013111	0.476447	0.057207	0.051786	0.005095	0.008590	0.010261
0.046070	0.053068	0.004298	0.013106	0.477800	0.060302	0.054952	0.005080	0.008658	0.010278
0.047426	0.052101	0.004331	0.013093	0.478684	0.063561	0.058251	0.005067	0.008725	0.010306
0.048838	0.051156	0.004366	0.013071	0.479079	0.066983	0.061686	0.005057	0.008792	0.010345
0.050298	0.050236	0.004404	0.013042	0.478972	0.070565	0.065256	0.005049	0.008857	0.010397
0.051795	0.049342	0.004444	0.013006	0.478356	0.074303	0.068961	0.005042	0.008920	0.010459
0.053319	0.048476	0.004487	0.012963	0.477237	0.078193	0.072801	0.005038	0.008981	0.010533
0.054857	0.047638	0.004534	0.012913	0.475632	0.082231	0.076774	0.005034	0.009040	0.010617
0.056399	0.046827	0.004583	0.012857	0.473569	0.086412	0.080878	0.005031	0.009095	0.010712
0.057931	0.046042	0.004635	0.012795	0.471079	0.090728	0.085109	0.005029	0.009148	0.010815
0.059442	0.045283	0.004690	0.012727	0.468193	0.095173	0.089465	0.005027	0.009196	0.010928
0.060918	0.044546	0.004748	0.012654	0.464940	0.099740	0.093939	0.005023	0.009240	0.011048
0.062345	0.043831	0.004809	0.012575	0.461345	0.104420	0.098527	0.005019	0.009280	0.011176
0.063710	0.043135	0.004872	0.012492	0.457427	0.109205	0.103220	0.005014	0.009314	0.011310
0.065000	0.042456	0.004939	0.012405	0.453206	0.114084	0.108012	0.005007	0.009342	0.011449
0.066200	0.041792	0.005009	0.012315	0.448699	0.119046	0.112893	0.004999	0.009364	0.011593
0.067298	0.041139	0.005082	0.012222	0.443928	0.124083	0.117853	0.004990	0.009379	0.011740
0.068285	0.040498	0.005158	0.012127	0.438913	0.129183	0.122881	0.004978	0.009386	0.011890
0.069156	0.039866	0.005238	0.012030	0.433671	0.134337	0.127963	0.004965	0.009387	0.012042
0.069907	0.039244	0.005321	0.011932	0.428219	0.139534	0.133086	0.004950	0.009380	0.012194
0.070537	0.038633	0.005408	0.011833	0.422570	0.144766	0.138237	0.004933	0.009365	0.012346
0.071050	0.038034	0.005498	0.011734	0.416734	0.150019	0.143403	0.004913	0.009344	0.012496
0.071448	0.037448	0.005592	0.011635	0.410717	0.155282	0.148570	0.004892	0.009315	0.012642
0.071739	0.036877	0.005690	0.011536	0.404524	0.160543	0.153726	0.004868	0.009278	0.012784
0.071931	0.036321	0.005791	0.011437	0.398156	0.165790	0.158855	0.004842	0.009234	0.012919
0.072035	0.035781	0.005896	0.011338	0.391618	0.171009	0.163942	0.004815	0.009183	0.013047
0.072062	0.035257	0.006004	0.011238	0.384915	0.176186	0.168969	0.004787	0.009125	0.013167
0.072024	0.034749	0.006114	0.011138	0.378054	0.181307	0.173916	0.004761	0.009061	0.013278
0.071932	0.034258	0.006228	0.011038	0.371043	0.186353	0.178762	0.004736	0.008992	0.013379
0.071797	0.033782	0.006344	0.010938	0.363891	0.191307	0.183486	0.004716	0.008919	0.013469
0.071629	0.033323	0.006461	0.010839	0.356605	0.196150	0.188064	0.004700	0.008841	0.013549
0.071436	0.032879	0.006580	0.010741	0.349199	0.200859	0.192475	0.004690	0.008760	0.013618
0.071227	0.032453	0.006699	0.010643	0.341692	0.205413	0.196696	0.004689	0.008676	0.013675
0.071007	0.032043	0.006818	0.010547	0.334104	0.209788	0.200706	0.004696	0.008591	0.013720
0.070783	0.031652	0.006936	0.010451	0.326453	0.213962	0.204484	0.004713	0.008504	0.013755
0.070559	0.031281	0.007053	0.010356	0.318758	0.217911	0.208008	0.004743	0.008417	0.013778
0.070338	0.030932	0.007167	0.010263	0.311030	0.221614	0.211255	0.004785	0.008330	0.013790
0.070123	0.030604	0.007278	0.010171	0.303281	0.225050	0.214207	0.004842	0.008245	0.013791
0.069916	0.030300	0.007386	0.010080	0.295520	0.228202	0.216847	0.004915	0.008162	0.013780
0.069718	0.030018	0.007491	0.009992	0.287751	0.231051	0.219165	0.005005	0.008081	0.013759
0.069530	0.029761	0.007591	0.009905	0.279982	0.233583	0.221154	0.005114	0.008004	0.013726
0.069351	0.029528	0.007687	0.009821	0.272214	0.235781	0.222810	0.005244	0.007931	0.013682
0.069184	0.029320	0.007780	0.009739	0.264453	0.237632	0.224132	0.005395	0.007863	0.013628
0.069028	0.029136	0.007868	0.009660	0.256698	0.239124	0.225116	0.005571	0.007799	0.013564
0.068887	0.028978	0.007952	0.009584	0.248952	0.240249	0.225758	0.005772	0.007742	0.013491
0.068761	0.028846	0.008032	0.009511	0.241215	0.241004	0.226052	0.006001	0.007690	0.013410
0.068650	0.028741	0.008107	0.009440	0.233485	0.241389	0.225994	0.006260	0.007644	0.013321
0.068556	0.028661	0.008178	0.009373	0.225764	0.241410	0.225584	0.006551	0.007605	0.013226
0.068478	0.028608	0.008243	0.009307	0.218051	0.241073	0.224827	0.006874	0.007572	0.013123
0.068416	0.028581	0.008304	0.009245	0.210354	0.240390	0.223736	0.007232	0.007545	0.013014
0.068370	0.028579	0.008359	0.009184	0.202684	0.239374	0.222328	0.007626	0.007525	0.012898
0.068337	0.028601	0.008409	0.009126	0.195058	0.238038	0.220627	0.008058	0.007511	0.012776
0.068316	0.028649	0.008454	0.009069	0.187491	0.236394	0.218659	0.008529	0.007502	0.012647
0.068306	0.028723	0.008492	0.009015	0.180001	0.234456	0.216448	0.009040	0.007499	0.012512
0.068304	0.028823	0.008526	0.008963	0.172602	0.232239	0.214021	0.009594	0.007502	0.012369
0.068309	0.028951	0.008554	0.008915	0.165309	0.229763	0.211401	0.010190	0.007510	0.012219
0.068323	0.029107	0.008576	0.008872	0.158135	0.227058	0.208611	0.010832	0.007523	0.012063
0.068346	0.029291	0.008593	0.008833	0.151092	0.224155	0.205670	0.011520	0.007541	0.011899
0.068381	0.029506	0.008606	0.008802	0.144192	0.221091	0.202599	0.012255	0.007564	0.011730
0.068433	0.029751	0.008613	0.008777	0.137443	0.217906	0.199415	0.013039	0.007591	0.011557
0.068504	0.030027	0.008615	0.008762	0.130855	0.214638	0.196141	0.013872	0.007622	0.011379
0.068600	0.030335	0.008611	0.008755	0.124435	0.211322	0.192803	0.014757	0.007656	0.011200
0.068723	0.030674	0.008603	0.008758	0.118190	0.207992	0.189427	0.015694	0.007693	0.011019
0.068876	0.031045	0.008590	0.008772	0.112125	0.204681	0.186042	0.016684	0.007733	0.010837
0.069061	0.031445	0.008571	0.008798	0.106247	0.201421	0.182677	0.017726	0.007773	0.010656
0.069278	0.031875	0.008548	0.008835	0.100557	0.198241	0.179359	0.018823	0.007814	0.010477
0.069528	0.032333	0.008519	0.008885	0.095060	0.195173	0.176114	0.019972	0.007856	0.010299
0.069809	0.032816	0.008485	0.008948	0.089757	0.192246	0.172966	0.021176	0.007896	0.010123
0.070121	0.033323	0.008447	0.009025	0.084649	0.189490	0.169937	0.022432	0.007936	0.009949
0.070462	0.033852	0.008404	0.009117	0.079735	0.186937	0.167048	0.023740	0.007975	0.009779
0.070831	0.034399	0.008355	0.009222	0.075014	0.184615	0.164316	0.025098	0.008014	0.009611
0.071226	0.034963	0.008302	0.009343	0.070482	0.182554	0.161756	0.026507	0.008052	0.009447
0.071647	0.035540	0.008245	0.009480	0.066136	0.180779	0.159382	0.027964	0.008090	0.009287
0.072093	0.036127	0.008183	0.009632	0.061971	0.179313	0.157203	0.029467	0.008127	0.009131
0.072563	0.036720	0.008116	0.009800	0.057982	0.178179	0.155229	0.031014	0.008166	0.008980
0.073057	0.037315	0.008046	0.009983	0.054162	0.177396	0.153468	0.032603	0.008205	0.008834
0.073572	0.037907	0.007973	0.010183	0.050508	0.176979	0.151923	0.034233	0.008246	0.008692
0.074107	0.038493	0.007897	0.010398	0.047012	0.176943	0.150600	0.035899	0.008288	0.008556
0.074662	0.039069	0.007818	0.010629	0.043672	0.177301	0.149501	0.037599	0.008334	0.008425
0.075235	0.039631	0.007738	0.010875	0.040480	0.178060	0.148625	0.039329	0.008382	0.008299
0.075825	0.040179	0.007656	0.011136	0.037433	0.179229	0.147971	0.041086	0.008433	0.008179
0.076428	0.040712	0.007574	0.011413	0.034523	0.180810	0.147536	0.042864	0.008487	0.008064
0.077041	0.041227	0.007491	0.011704	0.031745	0.182807	0.147313	0.044659	0.008545	0.007954
0.077659	0.041725	0.007408	0.012009	0.029092	0.185219	0.147297	0.046465	0.008607	0.007850
0.078279	0.042205	0.007325	0.012328	0.026559	0.188043	0.147482	0.048276	0.008673	0.007750
0.078894	0.042664	0.007241	0.012660	0.024139	0.191275	0.147860	0.050086	0.008743	0.007656
0.079500	0.043101	0.007159	0.013006	0.021827	0.194909	0.148422	0.051886	0.008818	0.007566
0.080093	0.043514	0.007076	0.013363	0.019617	0.198939	0.149161	0.053668	0.008897	0.007481
0.080667	0.043900	0.006993	0.013733	0.017503	0.203353	0.150069	0.055425	0.008980	0.007400
0.081218	0.044257	0.006911	0.014113	0.015480	0.208143	0.151140	0.057147	0.009068	0.007323
0.081741	0.044581	0.006830	0.014504	0.013544	0.213294	0.152367	0.058823	0.009161	0.007251
0.082230	0.044871	0.006748	0.014905	0.011690	0.218796	0.153745	0.060444	0.009257	0.007184
0.082681	0.045125	0.006667	0.015315	0.009916	0.224632	0.155268	0.061999	0.009357	0.007121
0.083090	0.045343	0.006587	0.015734	0.008221	0.230788	0.156932	0.063478	0.009461	0.007062
0.083453	0.045526	0.006506	0.016160	0.006602	0.237249	0.158730	0.064872	0.009567	0.007007
0.083766	0.045677	0.006426	0.016594	0.005057	0.243995	0.160655	0.066170	0.009675	0.006957
0.084027	0.045798	0.006346	0.017035	0.003585	0.251009	0.162699	0.067365	0.009784	0.006911
0.084238	0.045893	0.006266	0.017481	0.002185	0.258268	0.164852	0.068450	0.009893	0.006868
0.084400	0.045963	0.006187	0.017932	0.000854	0.265748	0.167105	0.069419	0.010002	0.006830
0.084516	0.046012	0.006109	0.018385	-0.000408	0.273420	0.169447	0.070268	0.010109	0.006795
0.084591	0.046040	0.006031	0.018841	-0.001602	0.281252	0.171864	0.070992	0.010213	0.006763
0.084630	0.046048	0.005956	0.019296	-0.002727	0.289210	0.174342	0.071586	0.010313	0.006735
0.084639	0.046038	0.005883	0.019750	-0.003785	0.297253	0.176862	0.072047	0.010408	0.006710
0.084621	0.046011	0.005813	0.020201	-0.004773	0.305340	0.179407	0.072372	0.010497	0.006689
0.084582	0.045968	0.005748	0.020649	-0.005694	0.313425	0.181955	0.072562	0.010578	0.006671
0.084525	0.045907	0.005688	0.021090	-0.006545	0.321458	0.184484	0.072618	0.010650	0.006656
0.084452	0.045829	0.005633	0.021524	-0.007327	0.329386	0.186969	0.072542	0.010712	0.006644
0.084365	0.045732	0.005586	0.021949	-0.008039	0.337154	0.189386	0.072337	0.010762	0.006635
0.084261	0.045618	0.005546	0.022361	-0.008680	0.344700	0.191710	0.072006	0.010800	0.006629
0.084142	0.045485	0.005514	0.022759	-0.009249	0.351962	0.193915	0.071550	0.010825	0.006625
0.084003	0.045333	0.005492	0.023142	-0.009744	0.358875	0.195973	0.070972	0.010837	0.006624
0.083841	0.045164	0.005478	0.023508	-0.010164	0.365374	0.197855	0.070274	0.010835	0.006624
0.083656	0.044976	0.005475	0.023856	-0.010505	0.371397	0.199534	0.069462	0.010819	0.006626
0.083442	0.044770	0.005483	0.024183	-0.010766	0.376886	0.200985	0.068542	0.010790	0.006630
0.083201	0.044548	0.005501	0.024489	-0.010943	0.381792	0.202182	0.067523	0.010748	0.006636
0.082929	0.044310	0.005531	0.024773	-0.011035	0.386074	0.203107	0.066414	0.010694	0.006643
0.082628	0.044057	0.005573	0.025034	-0.011037	0.389695	0.203743	0.065225	0.010629	0.006652
0.082299	0.043792	0.005626	0.025272	-0.010947	0.392626	0.204081	0.063966	0.010553	0.006664
0.081943	0.043516	0.005692	0.025485	-0.010760	0.394843	0.204115	0.062646	0.010467	0.006678
0.081564	0.043230	0.005771	0.025672	-0.010473	0.396321	0.203846	0.061272	0.010373	0.006696
0.081163	0.042937	0.005862	0.025831	-0.010082	0.397038	0.203274	0.059854	0.010271	0.006717
0.080744	0.042638	0.005967	0.025962	-0.009583	0.396971	0.202399	0.058399	0.010161	0.006742
0.080310	0.042335	0.006084	0.026064	-0.008970	0.396108	0.201226	0.056915	0.010044	0.006772
0.079863	0.042031	0.006215	0.026135	-0.008240	0.394449	0.199765	0.055407	0.009921	0.006807
0.079406	0.041731	0.006360	0.026176	-0.007387	0.392016	0.198034	0.053883	0.009791	0.006849
0.078940	0.041438	0.006520	0.026188	-0.006405	0.388844	0.196061	0.052348	0.009656	0.006896
0.078470	0.041156	0.006694	0.026171	-0.005290	0.384989	0.193879	0.050806	0.009516	0.006951
0.078001	0.040888	0.006883	0.026129	-0.004034	0.380510	0.191523	0.049261	0.009371	0.007014
0.077537	0.040635	0.007088	0.026062	-0.002633	0.375473	0.189027	0.047718	0.009222	0.007084
0.077085	0.040402	0.007308	0.025973	-0.001080	0.369940	0.186423	0.046178	0.009071	0.007163
0.076650	0.040189	0.007545	0.025864	0.000631	0.363970	0.183742	0.044646	0.008919	0.007252
0.076238	0.040000	0.007798	0.025738	0.002507	0.357620	0.181013	0.043123	0.008766	0.007349
0.075855	0.039834	0.008067	0.025597	0.004554	0.350945	0.178266	0.041610	0.008614	0.007457
0.075506	0.039692	0.008353	0.025442	0.006779	0.343999	0.175531	0.040111	0.008463	0.007575
0.075197	0.039576	0.008656	0.025275	0.009189	0.336834	0.172835	0.038628	0.008314	0.007704
0.074930	0.039485	0.008976	0.025097	0.011790	0.329501	0.170207	0.037165	0.008169	0.007845
0.074709	0.039418	0.009313	0.024911	0.014589	0.322046	0.167670	0.035724	0.008028	0.008000
0.074536	0.039375	0.009667	0.024718	0.017592	0.314518	0.165248	0.034309	0.007891	0.008168
0.074412	0.039353	0.010038	0.024520	0.020806	0.306960	0.162961	0.032922	0.007760	0.008352
0.074338	0.039350	0.010426	0.024320	0.024237	0.299420	0.160828	0.031565	0.007634	0.008552
0.074313	0.039365	0.010831	0.024119	0.027891	0.291940	0.158864	0.030240	0.007514	0.008768
0.074336	0.039395	0.011252	0.023921	0.031775	0.284565	0.157084	0.028949	0.007402	0.009002
0.074404	0.039437	0.011690	0.023729	0.035894	0.277339	0.155498	0.027694	0.007296	0.009254
0.074515	0.039492	0.012145	0.023544	0.040253	0.270303	0.154115	0.026475	0.007197	0.009525
0.074665	0.039556	0.012614	0.023370	0.044856	0.263498	0.152943	0.025296	0.007106	0.009814
0.074851	0.039629	0.013099	0.023209	0.049707	0.256964	0.151988	0.024159	0.007022	0.010123
0.075067	0.039710	0.013597	0.023063	0.054810	0.250739	0.151251	0.023064	0.006945	0.010452
0.075310	0.039797	0.014109	0.022933	0.060167	0.244857	0.150735	0.022016	0.006876	0.010800
0.075574	0.039888	0.014633	0.022822	0.065780	0.239352	0.150439	0.021014	0.006814	0.011168
0.075855	0.039982	0.015168	0.022730	0.071649	0.234254	0.150361	0.020062	0.006759	0.011556
0.076146	0.040077	0.015714	0.022659	0.077774	0.229590	0.150497	0.019160	0.006711	0.011964
0.076444	0.040173	0.016268	0.022610	0.084154	0.225383	0.150844	0.018310	0.006671	0.012391
0.076745	0.040266	0.016829	0.022584	0.090786	0.221656	0.151398	0.017512	0.006638	0.012839
0.077044	0.040356	0.017395	0.022580	0.097668	0.218428	0.152155	0.016767	0.006613	0.013306
0.077339	0.040440	0.017965	0.022599	0.104795	0.215719	0.153107	0.016077	0.006596	0.013792
0.077628	0.040516	0.018536	0.022640	0.112161	0.213544	0.154247	0.015441	0.006587	0.014297
0.077906	0.040582	0.019107	0.022704	0.119761	0.211919	0.155567	0.014860	0.006585	0.014820
0.078171	0.040638	0.019673	0.022791	0.127586	0.210853	0.157058	0.014333	0.006592	0.015360
0.078418	0.040683	0.020234	0.022898	0.135628	0.210355	0.158714	0.013862	0.006608	0.015916
0.078642	0.040716	0.020785	0.023026	0.143875	0.210428	0.160532	0.013445	0.006631	0.016488
0.078838	0.040737	0.021324	0.023175	0.152316	0.211075	0.162511	0.013082	0.006664	0.017075
0.079000	0.040747	0.021847	0.023341	0.160937	0.212295	0.164654	0.012772	0.006704	0.017676
0.079123	0.040745	0.022351	0.023526	0.169722	0.214086	0.166966	0.012515	0.006754	0.018290
0.079200	0.040731	0.022832	0.023726	0.178656	0.216444	0.169454	0.012310	0.006812	0.018915
0.079226	0.040706	0.023288	0.023943	0.187719	0.219364	0.172124	0.012156	0.006878	0.019551
0.079197	0.040672	0.023716	0.024174	0.196892	0.222836	0.174982	0.012052	0.006954	0.020195
0.079109	0.040628	0.024114	0.024421	0.206155	0.226850	0.178036	0.011999	0.007038	0.020846
0.078961	0.040577	0.024481	0.024682	0.215486	0.231391	0.181292	0.011995	0.007132	0.021503
0.078753	0.040521	0.024816	0.024959	0.224860	0.236445	0.184761	0.012040	0.007235	0.022163
0.078484	0.040461	0.025117	0.025252	0.234251	0.241994	0.188452	0.012134	0.007348	0.022824
0.078155	0.040398	0.025385	0.025562	0.243632	0.248023	0.192372	0.012276	0.007471	0.023484
0.077765	0.040335	0.025619	0.025888	0.252971	0.254514	0.196528	0.012467	0.007605	0.024142
0.077316	0.040272	0.025820	0.026230	0.262233	0.261445	0.200924	0.012707	0.007751	0.024795
0.076805	0.040211	0.025988	0.026590	0.271383	0.268792	0.205563	0.012994	0.007908	0.025442
0.076232	0.040153	0.026122	0.026965	0.280380	0.276528	0.210447	0.013329	0.008079	0.026082
0.075599	0.040100	0.026223	0.027355	0.289190	0.284621	0.215576	0.013712	0.008265	0.026715
0.074906	0.040052	0.026291	0.027760	0.297775	0.293039	0.220953	0.014142	0.008468	0.027341
0.074156	0.040010	0.026329	0.028178	0.306105	0.301745	0.226576	0.014619	0.008688	0.027957
0.073352	0.039973	0.026340	0.028607	0.314147	0.310701	0.232447	0.015142	0.008929	0.028564
0.072499	0.039942	0.026325	0.029047	0.321874	0.319870	0.238566	0.015712	0.009190	0.029162
0.071600	0.039915	0.026291	0.029494	0.329256	0.329211	0.244934	0.016326	0.009476	0.029749
0.070660	0.039892	0.026240	0.029949	0.336261	0.338683	0.251549	0.016985	0.009786	0.030326
0.069680	0.039871	0.026177	0.030408	0.342857	0.348242	0.258410	0.017688	0.010124	0.030892
0.068665	0.039849	0.026106	0.030870	0.349018	0.357841	0.265514	0.018433	0.010492	0.031446
0.067615	0.039824	0.026031	0.031333	0.354724	0.367433	0.272858	0.019220	0.010892	0.031987
0.066531	0.039794	0.025955	0.031796	0.359964	0.376969	0.280434	0.020048	0.011326	0.032515
0.065417	0.039756	0.025882	0.032257	0.364727	0.386402	0.288230	0.020916	0.011797	0.033028
0.064273	0.039709	0.025814	0.032715	0.369010	0.395682	0.296237	0.021823	0.012306	0.033528
0.063103	0.039652	0.025754	0.033168	0.372803	0.404756	0.304438	0.022767	0.012857	0.034013
0.061912	0.039583	0.025705	0.033614	0.376101	0.413567	0.312821	0.023746	0.013451	0.034483
0.060703	0.039505	0.025669	0.034054	0.378900	0.422056	0.321366	0.024760	0.014091	0.034937
0.059481	0.039417	0.025648	0.034485	0.381195	0.430161	0.330054	0.025808	0.014779	0.035375
0.058250	0.039319	0.025644	0.034905	0.382978	0.437825	0.338859	0.026887	0.015516	0.035794
0.057014	0.039213	0.025661	0.035314	0.384244	0.444994	0.347758	0.027996	0.016307	0.036194
0.055776	0.039098	0.025699	0.035709	0.384984	0.451620	0.356726	0.029134	0.017152	0.036572
0.054543	0.038972	0.025759	0.036088	0.385188	0.457661	0.365743	0.030300	0.018055	0.036926
0.053319	0.038835	0.025844	0.036449	0.384844	0.463080	0.374791	0.031491	0.019018	0.037251
0.052109	0.038684	0.025955	0.036791	0.383942	0.467842	0.383854	0.032706	0.020043	0.037545
0.050918	0.038518	0.026091	0.037113	0.382475	0.471921	0.392917	0.033944	0.021133	0.037804
0.049751	0.038334	0.026254	0.037416	0.380447	0.475295	0.401972	0.035204	0.022288	0.038025
0.048614	0.038131	0.026444	0.037698	0.377865	0.477954	0.411017	0.036485	0.023513	0.038206
0.047510	0.037908	0.026661	0.037960	0.374739	0.479891	0.420056	0.037787	0.024809	0.038344
0.046442	0.037663	0.026904	0.038202	0.371076	0.481105	0.429098	0.039110	0.026179	0.038439
0.045414	0.037398	0.027173	0.038424	0.366889	0.481590	0.438151	0.040454	0.027626	0.038490
0.044428	0.037116	0.027468	0.038626	0.362196	0.481350	0.447220	0.041817	0.029152	0.038497
0.043487	0.036817	0.027787	0.038809	0.357026	0.480396	0.456311	0.043199	0.030758	0.038459
0.042595	0.036506	0.028129	0.038973	0.351418	0.478757	0.465432	0.044600	0.032448	0.038376
0.041754	0.036183	0.028493	0.039118	0.345411	0.476480	0.474591	0.046023	0.034221	0.038249
0.040966	0.035852	0.028876	0.039243	0.339047	0.473624	0.483794	0.047469	0.036079	0.038075
0.040235	0.035514	0.029277	0.039348	0.332363	0.470257	0.493048	0.048942	0.038022	0.037854
0.039562	0.035172	0.029694	0.039432	0.325394	0.466449	0.502356	0.050444	0.040051	0.037588
0.038948	0.034827	0.030123	0.039495	0.318172	0.462266	0.511715	0.051980	0.042165	0.037276
0.038393	0.034481	0.030563	0.039537	0.310726	0.457767	0.521117	0.053555	0.044365	0.036919
0.037899	0.034137	0.031011	0.039557	0.303078	0.453008	0.530548	0.055171	0.046650	0.036521
0.037465	0.033793	0.031463	0.039555	0.295249	0.448039	0.539989	0.056834	0.049019	0.036084
0.037090	0.033453	0.031917	0.039531	0.287258	0.442906	0.549417	0.058548	0.051471	0.035611
0.036773	0.033115	0.032367	0.039484	0.279128	0.437649	0.558809	0.060314	0.054005	0.035106
0.036512	0.032781	0.032811	0.039415	0.270886	0.432305	0.568144	0.062134	0.056619	0.034572
0.036305	0.032452	0.033242	0.039325	0.262561	0.426905	0.577397	0.064011	0.059310	0.034012
0.036149	0.032129	0.033657	0.039215	0.254185	0.421483	0.586549	0.065945	0.062076	0.033431
0.036043	0.031813	0.034051	0.039085	0.245788	0.416075	0.595586	0.067935	0.064912	0.032832
0.035982	0.031506	0.034419	0.038935	0.237400	0.410722	0.604505	0.069981	0.067818	0.032218
0.035963	0.031209	0.034757	0.038768	0.229051	0.405465	0.613318	0.072081	0.070788	0.031591
0.035982	0.030925	0.035062	0.038582	0.220767	0.400348	0.622042	0.074233	0.073819	0.030953
0.036035	0.030655	0.035331	0.038377	0.212573	0.395412	0.630692	0.076434	0.076908	0.030307
0.036119	0.030400	0.035562	0.038155	0.204488	0.390696	0.639278	0.078681	0.080049	0.029655
0.036230	0.030162	0.035754	0.037916	0.196531	0.386239	0.647798	0.080968	0.083242	0.029000
0.036362	0.029942	0.035905	0.037661	0.188716	0.382079	0.656244	0.083290	0.086484	0.028344
0.036514	0.029741	0.036012	0.037391	0.181058	0.378247	0.664596	0.085641	0.089778	0.027690
0.036679	0.029559	0.036074	0.037108	0.173567	0.374771	0.672830	0.088012	0.093123	0.027040
0.036852	0.029396	0.036089	0.036814	0.166255	0.371675	0.680910	0.090396	0.096520	0.026396
0.037030	0.029252	0.036055	0.036512	0.159130	0.368978	0.688792	0.092781	0.099969	0.025763
0.037206	0.029126	0.035973	0.036204	0.152200	0.366694	0.696429	0.095158	0.103468	0.025141
0.037378	0.029019	0.035843	0.035892	0.145471	0.364833	0.703766	0.097513	0.107015	0.024532
0.037541	0.028928	0.035664	0.035579	0.138946	0.363400	0.710753	0.099835	0.110606	0.023939
0.037693	0.028852	0.035440	0.035267	0.132629	0.362395	0.717337	0.102109	0.114236	0.023362
0.037833	0.028791	0.035173	0.034956	0.126520	0.361813	0.723472	0.104320	0.117898	0.022804
0.037957	0.028742	0.034865	0.034649	0.120620	0.361643	0.729117	0.106454	0.121585	0.022264
0.038065	0.028705	0.034519	0.034346	0.114928	0.361869	0.734240	0.108494	0.125288	0.021745
0.038154	0.028679	0.034138	0.034049	0.109444	0.362472	0.738816	0.110425	0.128998	0.021246
0.038224	0.028663	0.033725	0.033759	0.104164	0.363426	0.742828	0.112230	0.132707	0.020768
0.038273	0.028658	0.033284	0.033477	0.099088	0.364706	0.746264	0.113892	0.136406	0.020312
0.038300	0.028662	0.032815	0.033205	0.094213	0.366278	0.749108	0.115391	0.140085	0.019878
0.038303	0.028675	0.032321	0.032945	0.089541	0.368108	0.751347	0.116709	0.143738	0.019464
0.038280	0.028694	0.031804	0.032699	0.085074	0.370157	0.752968	0.117827	0.147354	0.019071
0.038230	0.028719	0.031264	0.032470	0.080818	0.372383	0.753969	0.118729	0.150926	0.018699
0.038150	0.028748	0.030703	0.032258	0.076782	0.374740	0.754365	0.119406	0.154445	0.018347
0.038040	0.028780	0.030122	0.032068	0.072974	0.377181	0.754183	0.119852	0.157900	0.018016
0.037899	0.028811	0.029522	0.031901	0.069401	0.379655	0.753459	0.120066	0.161282	0.017703
0.037728	0.028842	0.028904	0.031760	0.066070	0.382110	0.752233	0.120047	0.164578	0.017410
0.037528	0.028869	0.028269	0.031649	0.062988	0.384493	0.750541	0.119798	0.167776	0.017137
0.037298	0.028890	0.027620	0.031568	0.060161	0.386756	0.748423	0.119321	0.170863	0.016882
0.037040	0.028906	0.026958	0.031521	0.057594	0.388858	0.745918	0.118623	0.173823	0.016645
0.036753	0.028914	0.026286	0.031511	0.055290	0.390761	0.743061	0.117711	0.176639	0.016426
0.036440	0.028916	0.025605	0.031540	0.053255	0.392435	0.739889	0.116599	0.179295	0.016223
0.036100	0.028913	0.024918	0.031612	0.051491	0.393852	0.736434	0.115298	0.181778	0.016036
0.035736	0.028903	0.024228	0.031729	0.050003	0.394990	0.732732	0.113822	0.184077	0.015863
0.035349	0.028887	0.023537	0.031895	0.048792	0.395831	0.728828	0.112184	0.186184	0.015702
0.034940	0.028865	0.022848	0.032113	0.047862	0.396356	0.724769	0.110396	0.188092	0.015553
0.034513	0.028837	0.022163	0.032387	0.047215	0.396546	0.720610	0.108469	0.189796	0.015412
0.034068	0.028802	0.021484	0.032718	0.046853	0.396378	0.716408	0.106416	0.191289	0.015280
0.033608	0.028759	0.020813	0.033111	0.046779	0.395836	0.712215	0.104246	0.192569	0.015154
0.033134	0.028708	0.020152	0.033567	0.046994	0.394906	0.708079	0.101971	0.193628	0.015035
0.032649	0.028649	0.019501	0.034087	0.047503	0.393584	0.704041	0.099604	0.194461	0.014921
0.032157	0.028582	0.018862	0.034673	0.048306	0.391876	0.700137	0.097153	0.195063	0.014813
0.031660	0.028507	0.018237	0.035326	0.049407	0.389800	0.696399	0.094631	0.195428	0.014713
0.031166	0.028424	0.017626	0.036046	0.050808	0.387387	0.692854	0.092044	0.195551	0.014620
0.030677	0.028334	0.017030	0.036833	0.052511	0.384678	0.689524	0.089403	0.195426	0.014537
0.030199	0.028236	0.016452	0.037685	0.054518	0.381717	0.686419	0.086716	0.195048	0.014463
0.029738	0.028131	0.015892	0.038603	0.056830	0.378548	0.683542	0.083993	0.194416	0.014401
0.029297	0.028018	0.015352	0.039584	0.059450	0.375211	0.680889	0.081243	0.193525	0.014352
0.028882	0.027896	0.014833	0.040627	0.062378	0.371744	0.678447	0.078478	0.192377	0.014317
0.028496	0.027767	0.014338	0.041729	0.065615	0.368177	0.676204	0.075706	0.190977	0.014297
0.028144	0.027629	0.013867	0.042890	0.069163	0.364541	0.674142	0.072939	0.189336	0.014294
0.027829	0.027484	0.013422	0.044106	0.073021	0.360861	0.672240	0.070186	0.187472	0.014308
0.027555	0.027329	0.013006	0.045376	0.077189	0.357160	0.670471	0.067459	0.185406	0.014339
0.027325	0.027167	0.012618	0.046697	0.081666	0.353459	0.668801	0.064766	0.183159	0.014390
0.027142	0.026997	0.012261	0.048065	0.086447	0.349778	0.667196	0.062116	0.180749	0.014460
0.027008	0.026820	0.011936	0.049477	0.091531	0.346142	0.665621	0.059517	0.178198	0.014549
0.026926	0.026637	0.011643	0.050927	0.096913	0.342577	0.664043	0.056978	0.175522	0.014658
0.026896	0.026449	0.011385	0.052412	0.102588	0.339111	0.662434	0.054504	0.172739	0.014787
0.026921	0.026257	0.011161	0.053925	0.108549	0.335772	0.660766	0.052101	0.169862	0.014937
0.027003	0.026064	0.010975	0.055462	0.114792	0.332588	0.659008	0.049775	0.166908	0.015106
0.027142	0.025869	0.010826	0.057016	0.121306	0.329577	0.657129	0.047531	0.163889	0.015296
0.027341	0.025674	0.010717	0.058584	0.128084	0.326759	0.655087	0.045372	0.160820	0.015505
0.027601	0.025479	0.010648	0.060158	0.135116	0.324145	0.652839	0.043302	0.157715	0.015733
0.027923	0.025284	0.010621	0.061735	0.142389	0.321746	0.650332	0.041323	0.154585	0.015981
0.028308	0.025090	0.010636	0.063310	0.149889	0.319567	0.647515	0.039437	0.151441	0.016247
0.028757	0.024897	0.010696	0.064879	0.157602	0.317609	0.644333	0.037646	0.148292	0.016532
0.029271	0.024706	0.010801	0.066439	0.165511	0.315873	0.640727	0.035952	0.145148	0.016836
0.029852	0.024517	0.010952	0.067987	0.173598	0.314355	0.636637	0.034355	0.142016	0.017160
0.030501	0.024330	0.011150	0.069520	0.181850	0.313045	0.632005	0.032859	0.138907	0.017505
0.031218	0.024147	0.011396	0.071034	0.190253	0.311933	0.626786	0.031462	0.135828	0.017873
0.032005	0.023967	0.011692	0.072525	0.198794	0.311005	0.620956	0.030168	0.132791	0.018263
0.032863	0.023790	0.012037	0.073988	0.207462	0.310246	0.614513	0.028977	0.129802	0.018679
0.033793	0.023616	0.012432	0.075418	0.216244	0.309640	0.607478	0.027891	0.126871	0.019119
0.034794	0.023445	0.012877	0.076808	0.225126	0.309171	0.599883	0.026909	0.124005	0.019584
0.035867	0.023277	0.013374	0.078150	0.234094	0.308818	0.591762	0.026032	0.121210	0.020076
0.037013	0.023114	0.013922	0.079437	0.243136	0.308560	0.583148	0.025262	0.118493	0.020594
0.038234	0.022957	0.014521	0.080663	0.252241	0.308373	0.574068	0.024598	0.115860	0.021139
0.039529	0.022804	0.015171	0.081819	0.261406	0.308229	0.564549	0.024039	0.113317	0.021711
0.040903	0.022659	0.015874	0.082901	0.270624	0.308100	0.554625	0.023585	0.110874	0.022311
0.042356	0.022521	0.016629	0.083903	0.279890	0.307957	0.544332	0.023236	0.108537	0.022938
0.043890	0.022394	0.017436	0.084822	0.289198	0.307770	0.533720	0.022990	0.106313	0.023593
0.045509	0.022277	0.018296	0.085654	0.298542	0.307514	0.522843	0.022847	0.104206	0.024275
0.047213	0.022174	0.019210	0.086398	0.307912	0.307171	0.511761	0.022805	0.102221	0.024985
0.049004	0.022085	0.020178	0.087054	0.317298	0.306726	0.500533	0.022862	0.100360	0.025723
0.050882	0.022012	0.021199	0.087623	0.326688	0.306171	0.489211	0.023018	0.098625	0.026489
0.052850	0.021957	0.022274	0.088106	0.336066	0.305501	0.477843	0.023269	0.097017	0.027284
0.054908	0.021922	0.023402	0.088501	0.345413	0.304710	0.466473	0.023614	0.095534	0.028107
0.057059	0.021909	0.024583	0.088809	0.354708	0.303789	0.455137	0.024050	0.094176	0.028959
0.059306	0.021920	0.025816	0.089028	0.363925	0.302727	0.443869	0.024574	0.092941	0.029840
0.061656	0.021957	0.027102	0.089159	0.373035	0.301508	0.432699	0.025183	0.091825	0.030750
0.064112	0.022022	0.028439	0.089202	0.382004	0.300110	0.421650	0.025872	0.090824	0.031687
0.066681	0.022118	0.029827	0.089160	0.390799	0.298511	0.410747	0.026639	0.089933	0.032651
0.069367	0.022246	0.031265	0.089036	0.399383	0.296691	0.400014	0.027478	0.089146	0.033641
0.072175	0.022408	0.032752	0.088835	0.407717	0.294632	0.389474	0.028385	0.088458	0.034654
0.075110	0.022606	0.034287	0.088565	0.415762	0.292326	0.379152	0.029355	0.087864	0.035688
0.078174	0.022840	0.035870	0.088229	0.423477	0.289769	0.369071	0.030381	0.087358	0.036740
0.081370	0.023113	0.037499	0.087835	0.430827	0.286964	0.359252	0.031458	0.086935	0.037808
0.084701	0.023424	0.039172	0.087387	0.437778	0.283918	0.349713	0.032579	0.086590	0.038887
0.088167	0.023775	0.040887	0.086890	0.444296	0.280644	0.340469	0.033737	0.086320	0.039973
0.091770	0.024165	0.042641	0.086348	0.450344	0.277157	0.331537	0.034926	0.086120	0.041063
0.095507	0.024596	0.044432	0.085765	0.455883	0.273473	0.322933	0.036138	0.085985	0.042152
0.099378	0.025068	0.046257	0.085142	0.460873	0.269610	0.314677	0.037366	0.085911	0.043236
0.103379	0.025580	0.048112	0.084481	0.465279	0.265585	0.306792	0.038603	0.085895	0.044309
0.107505	0.026133	0.049993	0.083786	0.469065	0.261411	0.299300	0.039843	0.085931	0.045366
0.111750	0.026727	0.051895	0.083060	0.472201	0.257098	0.292222	0.041078	0.086016	0.046403
0.116108	0.027362	0.053815	0.082306	0.474659	0.252655	0.285576	0.042307	0.086144	0.047415
0.120571	0.028037	0.055745	0.081530	0.476412	0.248090	0.279378	0.043527	0.086312	0.048399
0.125129	0.028753	0.057681	0.080737	0.477431	0.243411	0.273642	0.044737	0.086517	0.049349
0.129774	0.029507	0.059614	0.079930	0.477692	0.238625	0.268378	0.045936	0.086753	0.050264
0.134494	0.030298	0.061538	0.079115	0.477182	0.233741	0.263596	0.047125	0.087014	0.051139
0.139280	0.031125	0.063444	0.078294	0.475904	0.228768	0.259302	0.048304	0.087293	0.051971
0.144120	0.031986	0.065323	0.077470	0.473876	0.223720	0.255500	0.049477	0.087583	0.052755
0.149002	0.032880	0.067168	0.076645	0.471122	0.218612	0.252188	0.050644	0.087878	0.053488
0.153915	0.033803	0.068967	0.075821	0.467667	0.213464	0.249365	0.051807	0.088176	0.054166
0.158848	0.034756	0.070713	0.074998	0.463538	0.208296	0.247024	0.052969	0.088475	0.054785
0.163789	0.035738	0.072395	0.074180	0.458763	0.203131	0.245159	0.054129	0.088779	0.055342
0.168729	0.036748	0.074004	0.073367	0.453381	0.197993	0.243757	0.055288	0.089089	0.055836
0.173655	0.037785	0.075533	0.072563	0.447441	0.192904	0.242805	0.056446	0.089407	0.056266
0.178556	0.038848	0.076974	0.071770	0.441002	0.187886	0.242287	0.057602	0.089738	0.056631
0.183420	0.039938	0.078323	0.070990	0.434120	0.182956	0.242185	0.058754	0.090083	0.056930
0.188234	0.041052	0.079577	0.070225	0.426852	0.178132	0.242478	0.059902	0.090446	0.057163
0.192981	0.042189	0.080734	0.069476	0.419249	0.173428	0.243146	0.061044	0.090833	0.057328
0.197648	0.043348	0.081791	0.068745	0.411360	0.168856	0.244168	0.062182	0.091248	0.057424
0.202216	0.044526	0.082746	0.068031	0.403233	0.164426	0.245521	0.063317	0.091700	0.057452
0.206668	0.045722	0.083599	0.067335	0.394915	0.160146	0.247178	0.064451	0.092192	0.057413
0.210981	0.046934	0.084347	0.066659	0.386454	0.156024	0.249113	0.065588	0.092732	0.057309
0.215134	0.048159	0.084992	0.066002	0.377905	0.152065	0.251298	0.066730	0.093323	0.057145
0.219102	0.049394	0.085536	0.065367	0.369320	0.148274	0.253703	0.067881	0.093971	0.056926
0.222859	0.050637	0.085986	0.064756	0.360748	0.144654	0.256301	0.069047	0.094678	0.056656
0.226383	0.051883	0.086349	0.064171	0.352237	0.141209	0.259062	0.070232	0.095445	0.056341
0.229651	0.053130	0.086637	0.063615	0.343832	0.137939	0.261958	0.071443	0.096273	0.055984
0.232645	0.054372	0.086859	0.063090	0.335576	0.134847	0.264959	0.072687	0.097159	0.055590
0.235351	0.055605	0.087029	0.062597	0.327511	0.131933	0.268033	0.073969	0.098101	0.055162
0.237757	0.056821	0.087158	0.062139	0.319678	0.129197	0.271155	0.075295	0.099096	0.054703
0.239856	0.058017	0.087258	0.061718	0.312112	0.126636	0.274303	0.076670	0.100138	0.054215
0.241645	0.059184	0.087339	0.061336	0.304843	0.124248	0.277459	0.078098	0.101221	0.053702
0.243124	0.060316	0.087411	0.060996	0.297900	0.122030	0.280610	0.079581	0.102337	0.053166
0.244293	0.061406	0.087483	0.060702	0.291305	0.119976	0.283741	0.081123	0.103478	0.052612
0.245156	0.062446	0.087563	0.060457	0.285077	0.118080	0.286838	0.082725	0.104635	0.052043
0.245715	0.063429	0.087658	0.060264	0.279232	0.116335	0.289886	0.084387	0.105799	0.051463
0.245970	0.064352	0.087774	0.060126	0.273783	0.114732	0.292871	0.086110	0.106961	0.050875
0.245920	0.065212	0.087918	0.060043	0.268739	0.113261	0.295784	0.087891	0.108113	0.050283
0.245561	0.066008	0.088096	0.060017	0.264110	0.111910	0.298615	0.089729	0.109246	0.049691
0.244894	0.066743	0.088313	0.060048	0.259903	0.110666	0.301357	0.091621	0.110350	0.049101
0.243922	0.067418	0.088574	0.060135	0.256121	0.109518	0.303998	0.093561	0.111413	0.048516
0.242653	0.068037	0.088884	0.060277	0.252767	0.108456	0.306525	0.095544	0.112421	0.047937
0.241102	0.068602	0.089247	0.060471	0.249838	0.107471	0.308920	0.097566	0.113362	0.047366
0.239285	0.069120	0.089664	0.060714	0.247329	0.106560	0.311162	0.099619	0.114221	0.046805
0.237222	0.069594	0.090137	0.061003	0.245230	0.105719	0.313228	0.101696	0.114982	0.046254
0.234934	0.070031	0.090667	0.061333	0.243529	0.104946	0.315094	0.103789	0.115632	0.045714
0.232442	0.070435	0.091252	0.061702	0.242211	0.104242	0.316738	0.105887	0.116159	0.045186
0.229770	0.070810	0.091891	0.062107	0.241257	0.103611	0.318143	0.107979	0.116550	0.044668
0.226939	0.071161	0.092582	0.062548	0.240644	0.103055	0.319294	0.110052	0.116799	0.044160
0.223972	0.071493	0.093320	0.063029	0.240350	0.102575	0.320182	0.112091	0.116900	0.043661
0.220889	0.071810	0.094104	0.063553	0.240345	0.102174	0.320794	0.114080	0.116851	0.043171
0.217710	0.072116	0.094931	0.064126	0.240599	0.101850	0.321122	0.116004	0.116653	0.042688
0.214451	0.072415	0.095801	0.064751	0.241079	0.101606	0.321158	0.117845	0.116309	0.042210
0.211128	0.072711	0.096716	0.065435	0.241748	0.101441	0.320900	0.119589	0.115823	0.041736
0.207751	0.073006	0.097677	0.066183	0.242571	0.101356	0.320360	0.121226	0.115203	0.041263
0.204330	0.073304	0.098688	0.066999	0.243512	0.101352	0.319553	0.122747	0.114457	0.040789
0.200872	0.073606	0.099752	0.067890	0.244539	0.101427	0.318507	0.124145	0.113593	0.040312
0.197382	0.073913	0.100873	0.068862	0.245627	0.101580	0.317247	0.125416	0.112620	0.039830
0.193863	0.074225	0.102052	0.069920	0.246753	0.101810	0.315803	0.126556	0.111545	0.039342
0.190318	0.074543	0.103292	0.071069	0.247901	0.102111	0.314200	0.127560	0.110373	0.038846
0.186750	0.074866	0.104596	0.072314	0.249058	0.102479	0.312465	0.128424	0.109108	0.038340
0.183162	0.075194	0.105968	0.073661	0.250212	0.102907	0.310624	0.129142	0.107756	0.037822
0.179556	0.075527	0.107413	0.075113	0.251355	0.103388	0.308701	0.129711	0.106321	0.037292
0.175940	0.075866	0.108936	0.076675	0.252483	0.103911	0.306718	0.130133	0.104805	0.036748
0.172320	0.076209	0.110544	0.078348	0.253595	0.104469	0.304695	0.130410	0.103213	0.036190
0.168709	0.076558	0.112244	0.080136	0.254687	0.105051	0.302649	0.130554	0.101546	0.035618
0.165120	0.076910	0.114040	0.082039	0.255755	0.105648	0.300594	0.130577	0.099809	0.035032
0.161566	0.077266	0.115937	0.084057	0.256793	0.106254	0.298540	0.130495	0.098005	0.034431
0.158060	0.077628	0.117936	0.086190	0.257794	0.106864	0.296496	0.130328	0.096138	0.033815
0.154613	0.078000	0.120041	0.088436	0.258757	0.107475	0.294466	0.130096	0.094213	0.033185
0.151234	0.078391	0.122251	0.090791	0.259679	0.108085	0.292453	0.129816	0.092235	0.032541
0.147930	0.078809	0.124568	0.093253	0.260563	0.108694	0.290463	0.129505	0.090210	0.031885
0.144704	0.079262	0.126989	0.095818	0.261411	0.109302	0.288497	0.129179	0.088143	0.031218
0.141560	0.079759	0.129512	0.098481	0.262226	0.109906	0.286560	0.128853	0.086041	0.030543
0.138500	0.080307	0.132133	0.101241	0.263008	0.110505	0.284655	0.128539	0.083910	0.029862
0.135523	0.080911	0.134849	0.104097	0.263752	0.111095	0.282780	0.128250	0.081758	0.029178
0.132628	0.081576	0.137657	0.107049	0.264452	0.111673	0.280935	0.127999	0.079594	0.028495
0.129815	0.082307	0.140556	0.110098	0.265099	0.112234	0.279117	0.127800	0.077430	0.027815
0.127081	0.083107	0.143544	0.113245	0.265683	0.112775	0.277326	0.127672	0.075278	0.027143
0.124423	0.083978	0.146620	0.116488	0.266189	0.113294	0.275558	0.127630	0.073151	0.026482
0.121838	0.084922	0.149781	0.119825	0.266603	0.113793	0.273814	0.127695	0.071058	0.025836
0.119323	0.085938	0.153020	0.123254	0.266906	0.114274	0.272088	0.127884	0.069011	0.025208
0.116876	0.087025	0.156333	0.126771	0.267081	0.114742	0.270376	0.128212	0.067020	0.024603
0.114492	0.088181	0.159710	0.130372	0.267106	0.115200	0.268670	0.128695	0.065093	0.024026
0.112168	0.089402	0.163140	0.134053	0.266961	0.115652	0.266967	0.129344	0.063242	0.023483
0.109901	0.090685	0.166610	0.137813	0.266627	0.116103	0.265263	0.130172	0.061479	0.022980
0.107686	0.092022	0.170106	0.141649	0.266085	0.116557	0.263560	0.131189	0.059819	0.022526
0.105519	0.093410	0.173609	0.145558	0.265317	0.117018	0.261857	0.132403	0.058275	0.022127
0.103395	0.094842	0.177101	0.149537	0.264306	0.117492	0.260153	0.133823	0.056861	0.021793
0.101309	0.096313	0.180560	0.153585	0.263037	0.117984	0.258445	0.135452	0.055590	0.021532
0.099255	0.097815	0.183962	0.157702	0.261497	0.118500	0.256726	0.137297	0.054476	0.021352
0.097227	0.099343	0.187284	0.161890	0.259679	0.119044	0.254988	0.139360	0.053530	0.021263
0.095219	0.100890	0.190501	0.166152	0.257581	0.119619	0.253221	0.141643	0.052764	0.021273
0.093223	0.102447	0.193593	0.170495	0.255206	0.120229	0.251412	0.144149	0.052188	0.021390
0.091232	0.104008	0.196541	0.174922	0.252563	0.120876	0.249551	0.146878	0.051814	0.021623
0.089242	0.105561	0.199332	0.179436	0.249659	0.121560	0.247628	0.149831	0.051651	0.021980
0.087251	0.107099	0.201955	0.184037	0.246503	0.122284	0.245634	0.153007	0.051711	0.022471
0.085261	0.108608	0.204403	0.188726	0.243105	0.123050	0.243563	0.156405	0.052003	0.023103
0.083278	0.110080	0.206672	0.193499	0.239474	0.123860	0.241409	0.160022	0.052535	0.023884
0.081306	0.111503	0.208758	0.198353	0.235627	0.124716	0.239165	0.163854	0.053317	0.024822
0.079350	0.112866	0.210656	0.203286	0.231585	0.125619	0.236825	0.167894	0.054356	0.025925
0.077414	0.114159	0.212361	0.208295	0.227377	0.126569	0.234381	0.172135	0.055660	0.027200
0.075502	0.115369	0.213874	0.213378	0.223035	0.127567	0.231827	0.176566	0.057234	0.028656
0.073616	0.116485	0.215198	0.218531	0.218589	0.128612	0.229159	0.181175	0.059085	0.030300
0.071756	0.117494	0.216342	0.223752	0.214073	0.129702	0.226374	0.185949	0.061216	0.032143
0.069924	0.118389	0.217320	0.229036	0.209518	0.130836	0.223476	0.190872	0.063633	0.034194
0.068118	0.119163	0.218146	0.234376	0.204952	0.132012	0.220465	0.195930	0.066337	0.036463
0.066337	0.119814	0.218839	0.239760	0.200405	0.133227	0.217346	0.201108	0.069332	0.038959
0.064579	0.120342	0.219412	0.245175	0.195900	0.134475	0.214123	0.206395	0.072619	0.041691
0.062843	0.120752	0.219883	0.250606	0.191461	0.135750	0.210802	0.211778	0.076196	0.044671
0.061127	0.121048	0.220264	0.256035	0.187108	0.137044	0.207395	0.217248	0.080064	0.047905
0.059432	0.121234	0.220572	0.261442	0.182858	0.138347	0.203917	0.222796	0.084221	0.051403
0.057757	0.121316	0.220822	0.266813	0.178728	0.139650	0.200385	0.228415	0.088663	0.055172
0.056103	0.121301	0.221031	0.272133	0.174732	0.140940	0.196815	0.234098	0.093386	0.059219
0.054472	0.121197	0.221216	0.277393	0.170887	0.142205	0.193221	0.239838	0.098385	0.063552
0.052866	0.121013	0.221393	0.282589	0.167207	0.143430	0.189617	0.245623	0.103652	0.068176
0.051287	0.120764	0.221578	0.287717	0.163706	0.144601	0.186014	0.251443	0.109180	0.073097
0.049737	0.120464	0.221787	0.292777	0.160400	0.145704	0.182425	0.257289	0.114959	0.078322
0.048218	0.120128	0.222036	0.297770	0.157302	0.146723	0.178862	0.263152	0.120980	0.083854
0.046731	0.119773	0.222346	0.302695	0.154427	0.147647	0.175336	0.269027	0.127229	0.089697
0.045279	0.119414	0.222738	0.307548	0.151789	0.148465	0.171860	0.274910	0.133698	0.095852
0.043861	0.119067	0.223235	0.312325	0.149401	0.149168	0.168442	0.280801	0.140373	0.102321
0.042479	0.118745	0.223859	0.317019	0.147273	0.149749	0.165091	0.286702	0.147243	0.109103
0.041131	0.118463	0.224630	0.321625	0.145413	0.150203	0.161815	0.292616	0.154297	0.116199
0.039817	0.118233	0.225567	0.326140	0.143829	0.150526	0.158621	0.298546	0.161523	0.123606
0.038539	0.118073	0.226688	0.330566	0.142523	0.150715	0.155517	0.304498	0.168908	0.131323
0.037295	0.117996	0.228010	0.334905	0.141500	0.150765	0.152511	0.310476	0.176435	0.139345
0.036087	0.118017	0.229550	0.339169	0.140760	0.150672	0.149609	0.316481	0.184088	0.147668
0.034914	0.118152	0.231329	0.343370	0.140304	0.150429	0.146817	0.322516	0.191847	0.156287
0.033778	0.118412	0.233366	0.347530	0.140129	0.150029	0.144140	0.328579	0.199691	0.165192
0.032680	0.118808	0.235680	0.351673	0.140233	0.149471	0.141582	0.334667	0.207594	0.174376
0.031621	0.119352	0.238289	0.355824	0.140608	0.148759	0.139146	0.340770	0.215531	0.183825
0.030601	0.120051	0.241211	0.360008	0.141248	0.147904	0.136836	0.346877	0.223472	0.193530
0.029624	0.120911	0.244458	0.364243	0.142145	0.146923	0.134652	0.352973	0.231389	0.203478
0.028691	0.121939	0.248044	0.368545	0.143288	0.145834	0.132597	0.359045	0.239254	0.213656
0.027804	0.123137	0.251978	0.372926	0.144665	0.144661	0.130673	0.365076	0.247045	0.224048
0.026964	0.124509	0.256271	0.377396	0.146263	0.143424	0.128878	0.371054	0.254745	0.234636
0.026173	0.126055	0.260930	0.381960	0.148068	0.142148	0.127213	0.376963	0.262344	0.245399
0.025433	0.127776	0.265961	0.386621	0.150062	0.140856	0.125675	0.382791	0.269832	0.256314
0.024743	0.129672	0.271368	0.391374	0.152226	0.139569	0.124262	0.388518	0.277204	0.267353
0.024104	0.131740	0.277156	0.396212	0.154539	0.138309	0.122971	0.394123	0.284451	0.278490
0.023516	0.133978	0.283332	0.401127	0.156978	0.137093	0.121796	0.399579	0.291567	0.289695
0.022980	0.136379	0.289903	0.406106	0.159520	0.135940	0.120732	0.404856	0.298541	0.300937
0.022494	0.138936	0.296876	0.411135	0.162141	0.134867	0.119775	0.409920	0.305363	0.312183
0.022058	0.141641	0.304258	0.416197	0.164813	0.133889	0.118919	0.414737	0.312021	0.323399
0.021671	0.144486	0.312055	0.421278	0.167509	0.133019	0.118158	0.419281	0.318501	0.334548
0.021333	0.147461	0.320270	0.426367	0.170200	0.132269	0.117484	0.423532	0.324796	0.345590
0.021042	0.150561	0.328903	0.431453	0.172854	0.131651	0.116891	0.427480	0.330896	0.356481
0.020796	0.153780	0.337952	0.436533	0.175438	0.131174	0.116373	0.431125	0.336793	0.367173
0.020595	0.157114	0.347411	0.441606	0.177919	0.130848	0.115926	0.434470	0.342473	0.377613
0.020438	0.160559	0.357273	0.446674	0.180261	0.130683	0.115546	0.437520	0.347924	0.387750
0.020322	0.164108	0.367528	0.451738	0.182429	0.130686	0.115231	0.440278	0.353131	0.397531
0.020248	0.167756	0.378161	0.456803	0.184384	0.130865	0.114976	0.442748	0.358085	0.406907
0.020214	0.171498	0.389152	0.461868	0.186087	0.131225	0.114780	0.444945	0.362779	0.415834
0.020219	0.175331	0.400479	0.466935	0.187499	0.131771	0.114641	0.446892	0.367206	0.424274
0.020261	0.179256	0.412113	0.472000	0.188579	0.132504	0.114565	0.448624	0.371361	0.432194
0.020342	0.183271	0.424021	0.477063	0.189292	0.133428	0.114555	0.450186	0.375233	0.439567
0.020460	0.187376	0.436170	0.482119	0.189607	0.134543	0.114621	0.451624	0.378810	0.446372
0.020615	0.191571	0.448524	0.487162	0.189503	0.135851	0.114770	0.452981	0.382078	0.452588
0.020807	0.195852	0.461051	0.492183	0.188968	0.137355	0.115008	0.454297	0.385025	0.458191
0.021036	0.200217	0.473720	0.497167	0.188001	0.139057	0.115342	0.455606	0.387648	0.463157
0.021301	0.204666	0.486508	0.502092	0.186604	0.140956	0.115777	0.456938	0.389955	0.467459
0.021600	0.209194	0.499390	0.506937	0.184793	0.143055	0.116315	0.458316	0.391963	0.471078
0.021935	0.213799	0.512349	0.511677	0.182595	0.145352	0.116958	0.459761	0.393698	0.474017
0.022302	0.218477	0.525362	0.516288	0.180045	0.147846	0.117708	0.461287	0.395182	0.476299
0.022702	0.223226	0.538407	0.520745	0.177181	0.150535	0.118563	0.462905	0.396436	0.477970
0.023133	0.228051	0.551456	0.525026	0.174037	0.153413	0.119522	0.464625	0.397478	0.479083
0.023594	0.232956	0.564475	0.529112	0.170649	0.156480	0.120581	0.466455	0.398324	0.479697
0.024085	0.237950	0.577422	0.532994	0.167049	0.159730	0.121736	0.468409	0.398993	0.479873
0.024604	0.243042	0.590249	0.536672	0.163268	0.163162	0.122984	0.470499	0.399504	0.479672
0.025151	0.248237	0.602908	0.540157	0.159334	0.166773	0.124320	0.472740	0.399883	0.479151
0.025725	0.253541	0.615349	0.543472	0.155275	0.170559	0.125738	0.475139	0.400159	0.478365
0.026325	0.258959	0.627529	0.546642	0.151115	0.174515	0.127234	0.477701	0.400360	0.477361
0.026951	0.264500	0.639411	0.549695	0.146878	0.178638	0.128805	0.480423	0.400516	0.476186
0.027602	0.270173	0.650969	0.552653	0.142586	0.182918	0.130446	0.483296	0.400652	0.474884
0.028275	0.275994	0.662188	0.555539	0.138260	0.187347	0.132156	0.486308	0.400789	0.473499
0.028970	0.281981	0.673061	0.558380	0.133920	0.191913	0.133934	0.489445	0.400944	0.472075
0.029685	0.288154	0.683589	0.561207	0.129586	0.196602	0.135779	0.492690	0.401132	0.470655
0.030419	0.294530	0.693771	0.564059	0.125276	0.201402	0.137691	0.496027	0.401364	0.469274
0.031170	0.301128	0.703605	0.566984	0.121007	0.206297	0.139667	0.499432	0.401650	0.467964
0.031935	0.307961	0.713085	0.570033	0.116793	0.211277	0.141703	0.502882	0.401993	0.466755
0.032714	0.315042	0.722206	0.573262	0.112651	0.216332	0.143795	0.506348	0.402397	0.465675
0.033504	0.322386	0.730969	0.576724	0.108592	0.221458	0.145936	0.509807	0.402866	0.464752
0.034304	0.330007	0.739381	0.580466	0.104628	0.226653	0.148117	0.513239	0.403403	0.464017
0.035111	0.337920	0.747456	0.584527	0.100768	0.231917	0.150331	0.516628	0.404019	0.463501
0.035923	0.346142	0.755214	0.588940	0.097023	0.237249	0.152567	0.519965	0.404721	0.463237
0.036738	0.354686	0.762677	0.593731	0.093398	0.242646	0.154815	0.523241	0.405519	0.463257
0.037552	0.363564	0.769866	0.598918	0.089900	0.248106	0.157063	0.526442	0.406418	0.463591
0.038363	0.372786	0.776802	0.604513	0.086534	0.253622	0.159301	0.529557	0.407425	0.464262
0.039167	0.382359	0.783499	0.610523	0.083301	0.259182	0.161519	0.532576	0.408543	0.465287
0.039961	0.392292	0.789968	0.616952	0.080206	0.264776	0.163702	0.535492	0.409770	0.466680
0.040741	0.402593	0.796209	0.623804	0.077248	0.270387	0.165839	0.538305	0.411106	0.468446
0.041502	0.413275	0.802212	0.631076	0.074427	0.275997	0.167913	0.541013	0.412545	0.470588
0.042241	0.424348	0.807961	0.638759	0.071742	0.281587	0.169909	0.543620	0.414086	0.473101
0.042954	0.435818	0.813438	0.646842	0.069191	0.287138	0.171808	0.546125	0.415722	0.475974
0.043638	0.447691	0.818620	0.655304	0.066770	0.292634	0.173593	0.548527	0.417446	0.479193
0.044291	0.459968	0.823492	0.664121	0.064475	0.298062	0.175248	0.550818	0.419245	0.482738
0.044912	0.472649	0.828043	0.673267	0.062301	0.303410	0.176759	0.552990	0.421105	0.486583
0.045501	0.485731	0.832274	0.682711	0.060245	0.308672	0.178111	0.555036	0.423010	0.490701
0.046057	0.499212	0.836194	0.692425	0.058300	0.313841	0.179294	0.556956	0.424946	0.495062
0.046581	0.513085	0.839820	0.702374	0.056461	0.318906	0.180298	0.558756	0.426899	0.499642
0.047076	0.527341	0.843178	0.712525	0.054721	0.323855	0.181113	0.560452	0.428852	0.504417
0.047542	0.541965	0.846289	0.722840	0.053074	0.328671	0.181730	0.562061	0.430786	0.509369
0.047982	0.556937	0.849172	0.733288	0.051513	0.333333	0.182139	0.563600	0.432680	0.514478
0.048396	0.572231	0.851839	0.743850	0.050033	0.337816	0.182332	0.565082	0.434512	0.519726
0.048787	0.587813	0.854305	0.754514	0.048626	0.342094	0.182307	0.566512	0.436261	0.525093
0.049158	0.603646	0.856590	0.765275	0.047289	0.346137	0.182068	0.567894	0.437913	0.530560
0.049511	0.619688	0.858724	0.776127	0.046017	0.349921	0.181624	0.569223	0.439451	0.536101
0.049850	0.635897	0.860749	0.787058	0.044808	0.353429	0.180991	0.570500	0.440861	0.541689
0.050176	0.652226	0.862713	0.798050	0.043657	0.356653	0.180187	0.571728	0.442126	0.547293
0.050493	0.668622	0.864672	0.809079	0.042562	0.359592	0.179229	0.572922	0.443235	0.552877
0.050804	0.685030	0.866680	0.820118	0.041520	0.362249	0.178134	0.574105	0.444185	0.558404
0.051112	0.701384	0.868795	0.831136	0.040528	0.364627	0.176916	0.575307	0.444977	0.563842
0.051419	0.717623	0.871067	0.842095	0.039583	0.366728	0.175588	0.576564	0.445622	0.569165
0.051728	0.733689	0.873544	0.852951	0.038681	0.368557	0.174159	0.577909	0.446130	0.574359
0.052042	0.749531	0.876265	0.863653	0.037819	0.370116	0.172639	0.579372	0.446514	0.579411
0.052360	0.765114	0.879261	0.874146	0.036994	0.371405	0.171032	0.580978	0.446786	0.584311
0.052684	0.780411	0.882552	0.884368	0.036204	0.372419	0.169344	0.582743	0.446957	0.589042
0.053014	0.795403	0.886146	0.894254	0.035447	0.373149	0.167579	0.584675	0.447034	0.593586
0.053349	0.810076	0.890039	0.903733	0.034722	0.373582	0.165738	0.586774	0.447027	0.597920
0.053688	0.824416	0.894216	0.912723	0.034029	0.373702	0.163828	0.589030	0.446950	0.602018
0.054028	0.838405	0.898646	0.921142	0.033368	0.373496	0.161853	0.591429	0.446820	0.605851
0.054366	0.852019	0.903290	0.928906	0.032742	0.372950	0.159820	0.593947	0.446655	0.609390
0.054699	0.865225	0.908098	0.935936	0.032150	0.372053	0.157734	0.596553	0.446467	0.612611
0.055022	0.877988	0.913014	0.942158	0.031594	0.370797	0.155600	0.599212	0.446263	0.615505
0.055330	0.890270	0.917982	0.947503	0.031073	0.369175	0.153420	0.601881	0.446046	0.618073
0.055618	0.902039	0.922950	0.951903	0.030588	0.367183	0.151194	0.604519	0.445815	0.620320
0.055880	0.913265	0.927873	0.955291	0.030139	0.364820	0.148921	0.607081	0.445563	0.622254
0.056111	0.923921	0.932718	0.957610	0.029724	0.362084	0.146601	0.609529	0.445284	0.623875
0.056306	0.933990	0.937467	0.958820	0.029345	0.358973	0.144236	0.611823	0.444972	0.625185
0.056459	0.943455	0.942112	0.958909	0.028999	0.355487	0.141826	0.613929	0.444617	0.626179
0.056570	0.952312	0.946654	0.957892	0.028686	0.351632	0.139375	0.615811	0.444203	0.626853
0.056638	0.960561	0.951105	0.955807	0.028407	0.347422	0.136884	0.617429	0.443710	0.627204
0.056661	0.968212	0.955476	0.952715	0.028163	0.342876	0.134356	0.618737	0.443113	0.627230
0.056640	0.975278	0.959777	0.948683	0.027953	0.338017	0.131794	0.619683	0.442385	0.626929
0.056575	0.981779	0.964009	0.943776	0.027779	0.332868	0.129201	0.620212	0.441504	0.626302
0.056465	0.987735	0.968166	0.938055	0.027641	0.327453	0.126580	0.620274	0.440458	0.625345
0.056310	0.993161	0.972235	0.931577	0.027540	0.321798	0.123940	0.619830	0.439251	0.624053
0.056112	0.998067	0.976204	0.924404	0.027476	0.315928	0.121291	0.618853	0.437894	0.622414
0.055874	1.002452	0.980064	0.916608	0.027449	0.309868	0.118648	0.617325	0.436406	0.620409
0.055597	1.006307	0.983808	0.908272	0.027457	0.303641	0.116025	0.615229	0.434801	0.618022
0.055288	1.009630	0.987436	0.899486	0.027501	0.297265	0.113437	0.612558	0.433089	0.615242
0.054951	1.012423	0.990946	0.890340	0.027580	0.290761	0.110897	0.609314	0.431274	0.612075
0.054590	1.014703	0.994340	0.880916	0.027693	0.284151	0.108419	0.605519	0.429358	0.608543
0.054212	1.016501	0.997619	0.871288	0.027837	0.277458	0.106013	0.601202	0.427340	0.604679
0.053820	1.017856	1.000780	0.861518	0.028011	0.270707	0.103691	0.596403	0.425224	0.600523
0.053417	1.018820	1.003824	0.851655	0.028212	0.263921	0.101461	0.591158	0.423016	0.596112
0.053007	1.019443	1.006744	0.841744	0.028440	0.257121	0.099332	0.585505	0.420726	0.591482
0.052593	1.019778	1.009531	0.831819	0.028691	0.250326	0.097309	0.579478	0.418367	0.586668
0.052176	1.019870	1.012170	0.821909	0.028963	0.243550	0.095398	0.573113	0.415960	0.581710
0.051758	1.019760	1.014640	0.812031	0.029255	0.236808	0.093605	0.566447	0.413521	0.576659
0.051340	1.019483	1.016919	0.802197	0.029565	0.230110	0.091933	0.559513	0.411067	0.571567
0.050923	1.019066	1.018986	0.792412	0.029889	0.223470	0.090383	0.552341	0.408612	0.566484
0.050506	1.018534	1.020817	0.782670	0.030226	0.216898	0.088956	0.544957	0.406167	0.561456
0.050091	1.017906	1.022388	0.772962	0.030574	0.210406	0.087654	0.537386	0.403743	0.556523
0.049674	1.017195	1.023671	0.763279	0.030930	0.204003	0.086477	0.529646	0.401352	0.551724
0.049256	1.016407	1.024627	0.753604	0.031291	0.197697	0.085425	0.521755	0.399007	0.547097
0.048834	1.015536	1.025208	0.743920	0.031656	0.191492	0.084496	0.513722	0.396718	0.542679
0.048407	1.014565	1.025354	0.734201	0.032024	0.185391	0.083689	0.505557	0.394495	0.538508
0.047971	1.013464	1.025001	0.724409	0.032393	0.179394	0.083002	0.497266	0.392349	0.534615
0.047526	1.012200	1.024082	0.714502	0.032763	0.173496	0.082429	0.488860	0.390288	0.531026
0.047071	1.010731	1.022533	0.704425	0.033132	0.167694	0.081967	0.480348	0.388317	0.527761
0.046604	1.009014	1.020300	0.694120	0.033500	0.161983	0.081611	0.471744	0.386437	0.524834
0.046126	1.007006	1.017341	0.683530	0.033866	0.156358	0.081355	0.463065	0.384643	0.522249
0.045637	1.004661	1.013628	0.672603	0.034229	0.150818	0.081194	0.454332	0.382931	0.520009
0.045138	1.001941	1.009154	0.661291	0.034588	0.145367	0.081123	0.445569	0.381292	0.518109
0.044631	0.998813	1.003924	0.649548	0.034942	0.140009	0.081139	0.436800	0.379718	0.516538
0.044116	0.995253	0.997960	0.637332	0.035288	0.134752	0.081239	0.428051	0.378202	0.515277
0.043595	0.991246	0.991290	0.624607	0.035625	0.129605	0.081422	0.419347	0.376737	0.514301
0.043070	0.986784	0.983946	0.611356	0.035951	0.124574	0.081685	0.410707	0.375316	0.513578
0.042541	0.981858	0.975959	0.597577	0.036265	0.119664	0.082028	0.402149	0.373930	0.513068
0.042009	0.976460	0.967352	0.583293	0.036562	0.114883	0.082451	0.393681	0.372574	0.512729
0.041474	0.970580	0.958140	0.568546	0.036842	0.110232	0.082953	0.385309	0.371237	0.512511
0.040935	0.964206	0.948327	0.553387	0.037100	0.105715	0.083536	0.377033	0.369911	0.512363
0.040391	0.957329	0.937911	0.537870	0.037335	0.101336	0.084200	0.368847	0.368582	0.512229
0.039840	0.949936	0.926888	0.522047	0.037542	0.097098	0.084947	0.360742	0.367235	0.512051
0.039282	0.942014	0.915256	0.505965	0.037720	0.093008	0.085775	0.352707	0.365853	0.511768
0.038713	0.933543	0.903012	0.489667	0.037866	0.089072	0.086684	0.344731	0.364426	0.511317
0.038134	0.924493	0.890163	0.473200	0.037979	0.085301	0.087673	0.336806	0.362948	0.510637
0.037542	0.914827	0.876721	0.456611	0.038057	0.081701	0.088739	0.328934	0.361418	0.509675
0.036940	0.904509	0.862709	0.439947	0.038099	0.078281	0.089883	0.321120	0.359837	0.508383
0.036328	0.893509	0.848158	0.423255	0.038106	0.075047	0.091102	0.313375	0.358208	0.506725
0.035710	0.881814	0.833107	0.406581	0.038077	0.072010	0.092398	0.305711	0.356529	0.504678
0.035087	0.869432	0.817604	0.389968	0.038014	0.069176	0.093769	0.298136	0.354803	0.502226
0.034463	0.856387	0.801701	0.373462	0.037918	0.066554	0.095217	0.290663	0.353034	0.499361
0.033841	0.842724	0.785454	0.357107	0.037790	0.064154	0.096742	0.283301	0.351237	0.496079
0.033223	0.828497	0.768918	0.340947	0.037630	0.061982	0.098347	0.276061	0.349440	0.492376
0.032611	0.813775	0.752147	0.325027	0.037441	0.060045	0.100031	0.268953	0.347677	0.488257
0.032008	0.798626	0.735187	0.309387	0.037222	0.058350	0.101798	0.261985	0.345986	0.483737
0.031413	0.783125	0.718078	0.294063	0.036977	0.056901	0.103649	0.255168	0.344403	0.478840
0.030828	0.767342	0.700848	0.279089	0.036707	0.055704	0.105589	0.248510	0.342960	0.473594
0.030253	0.751339	0.683523	0.264495	0.036414	0.054763	0.107622	0.242020	0.341685	0.468029
0.029689	0.735170	0.666119	0.250308	0.036102	0.054079	0.109751	0.235705	0.340602	0.462175
0.029133	0.718880	0.648654	0.236551	0.035772	0.053656	0.111983	0.229571	0.339735	0.456062
0.028586	0.702502	0.631141	0.223244	0.035428	0.053495	0.114324	0.223624	0.339108	0.449719
0.028046	0.686062	0.613597	0.210404	0.035071	0.053596	0.116779	0.217867	0.338742	0.443176
0.027512	0.669577	0.596036	0.198046	0.034704	0.053960	0.119354	0.212304	0.338657	0.436466
0.026984	0.653060	0.578477	0.186179	0.034329	0.054585	0.122053	0.206934	0.338870	0.429620
0.026460	0.636523	0.560940	0.174814	0.033949	0.055472	0.124881	0.201758	0.339395	0.422667
0.025939	0.619976	0.543449	0.163957	0.033566	0.056618	0.127840	0.196775	0.340245	0.415639
0.025421	0.603432	0.526028	0.153610	0.033182	0.058020	0.130930	0.191982	0.341427	0.408568
0.024904	0.586905	0.508706	0.143777	0.032798	0.059674	0.134153	0.187381	0.342946	0.401494
0.024390	0.570414	0.491509	0.134456	0.032416	0.061578	0.137507	0.182972	0.344803	0.394457
0.023876	0.553980	0.474466	0.125644	0.032037	0.063727	0.140996	0.178757	0.346995	0.387501
0.023365	0.537630	0.457603	0.117336	0.031665	0.066116	0.144618	0.174735	0.349516	0.380664
0.022856	0.521393	0.440946	0.109526	0.031299	0.068741	0.148379	0.170904	0.352353	0.373985
0.022350	0.505300	0.424519	0.102206	0.030941	0.071597	0.152281	0.167261	0.355493	0.367498
0.021847	0.489385	0.408343	0.095364	0.030591	0.074678	0.156333	0.163804	0.358915	0.361236
0.021349	0.473679	0.392436	0.088989	0.030250	0.077980	0.160542	0.160529	0.362601	0.355227
0.020857	0.458217	0.376811	0.083069	0.029918	0.081497	0.164920	0.157430	0.366529	0.349495
0.020370	0.443028	0.361478	0.077589	0.029594	0.085224	0.169479	0.154501	0.370678	0.344066
0.019890	0.428139	0.346447	0.072534	0.029279	0.089153	0.174230	0.151733	0.375028	0.338962
0.019418	0.413573	0.331727	0.067887	0.028969	0.093279	0.179184	0.149117	0.379561	0.334210
0.018954	0.399350	0.317327	0.063632	0.028666	0.097594	0.184349	0.146641	0.384260	0.329837
0.018499	0.385484	0.303257	0.059750	0.028366	0.102092	0.189733	0.144295	0.389105	0.325868
0.018055	0.371982	0.289526	0.056224	0.028069	0.106766	0.195339	0.142070	0.394076	0.322326
0.017623	0.358848	0.276144	0.053034	0.027774	0.111609	0.201169	0.139957	0.399147	0.319232
0.017203	0.346080	0.263121	0.050164	0.027477	0.116614	0.207223	0.137949	0.404291	0.316604
0.016796	0.333673	0.250468	0.047594	0.027180	0.121774	0.213498	0.136041	0.409475	0.314454
0.016405	0.321620	0.238193	0.045309	0.026881	0.127082	0.219988	0.134227	0.414673	0.312792
0.016029	0.309911	0.226307	0.043292	0.026579	0.132531	0.226686	0.132502	0.419867	0.311625
0.015671	0.298537	0.214819	0.041527	0.026274	0.138110	0.233580	0.130861	0.425049	0.310953
0.015333	0.287490	0.203737	0.040001	0.025966	0.143812	0.240657	0.129300	0.430225	0.310772
0.015015	0.276762	0.193069	0.038701	0.025654	0.149625	0.247898	0.127819	0.435400	0.311075
0.014720	0.266345	0.182821	0.037612	0.025339	0.155539	0.255284	0.126416	0.440584	0.311850
0.014449	0.256234	0.173000	0.036724	0.025022	0.161540	0.262792	0.125091	0.445784	0.313082
0.014205	0.246426	0.163607	0.036025	0.024704	0.167616	0.270396	0.123843	0.451005	0.314749
0.013987	0.236917	0.154647	0.035502	0.024387	0.173748	0.278068	0.122668	0.456248	0.316825
0.013798	0.227706	0.146118	0.035145	0.024072	0.179921	0.285774	0.121562	0.461512	0.319283
0.013638	0.218795	0.138020	0.034942	0.023761	0.186115	0.293479	0.120520	0.466792	0.322090
0.013510	0.210183	0.130347	0.034880	0.023453	0.192313	0.301141	0.119538	0.472082	0.325210
0.013414	0.201873	0.123095	0.034946	0.023151	0.198495	0.308718	0.118616	0.477378	0.328608
0.013351	0.193867	0.116256	0.035128	0.022854	0.204645	0.316167	0.117752	0.482673	0.332244
0.013322	0.186166	0.109822	0.035412	0.022563	0.210745	0.323443	0.116947	0.487960	0.336078
0.013329	0.178770	0.103781	0.035785	0.022280	0.216777	0.330503	0.116201	0.493232	0.340067
0.013372	0.171677	0.098125	0.036234	0.022004	0.222727	0.337305	0.115514	0.498483	0.344165
0.013452	0.164883	0.092841	0.036745	0.021739	0.228580	0.343810	0.114887	0.503706	0.348323
0.013570	0.158381	0.087919	0.037303	0.021484	0.234326	0.349982	0.114323	0.508893	0.352489
0.013727	0.152162	0.083346	0.037896	0.021243	0.239954	0.355784	0.113825	0.514026	0.356613
0.013925	0.146217	0.079111	0.038510	0.021016	0.245458	0.361182	0.113396	0.519084	0.360642
0.014163	0.140534	0.075201	0.039130	0.020805	0.250828	0.366144	0.113039	0.524039	0.364520
0.014442	0.135104	0.071604	0.039747	0.020610	0.256057	0.370641	0.112755	0.528856	0.368190
0.014765	0.129914	0.068309	0.040347	0.020432	0.261134	0.374646	0.112548	0.533498	0.371592
0.015130	0.124953	0.065303	0.040922	0.020272	0.266046	0.378131	0.112418	0.537922	0.374669
0.015540	0.120213	0.062573	0.041464	0.020130	0.270778	0.381069	0.112365	0.542079	0.377367
0.015996	0.115683	0.060107	0.041965	0.020006	0.275312	0.383429	0.112390	0.545915	0.379634
0.016500	0.111356	0.057893	0.042419	0.019898	0.279627	0.385179	0.112490	0.549375	0.381421
0.017052	0.107224	0.055918	0.042822	0.019807	0.283700	0.386292	0.112663	0.552410	0.382675
0.017654	0.103279	0.054168	0.043169	0.019731	0.287512	0.386748	0.112905	0.554979	0.383349
0.018309	0.099515	0.052629	0.043458	0.019669	0.291046	0.386539	0.113211	0.557048	0.383407
0.019019	0.095924	0.051288	0.043685	0.019621	0.294289	0.385671	0.113572	0.558589	0.382830
0.019785	0.092500	0.050130	0.043845	0.019583	0.297234	0.384161	0.113981	0.559572	0.381615
0.020609	0.089235	0.049138	0.043936	0.019556	0.299880	0.382038	0.114427	0.559971	0.379768
0.021492	0.086123	0.048296	0.043954	0.019536	0.302227	0.379342	0.114898	0.559762	0.377301
0.022437	0.083155	0.047589	0.043897	0.019521	0.304286	0.376114	0.115382	0.558927	0.374235
0.023445	0.080327	0.046998	0.043762	0.019510	0.306067	0.372397	0.115867	0.557451	0.370598
0.024517	0.077631	0.046506	0.043551	0.019501	0.307587	0.368231	0.116338	0.555332	0.366423
0.025655	0.075062	0.046097	0.043264	0.019490	0.308861	0.363663	0.116783	0.552584	0.361746
0.026858	0.072613	0.045754	0.042907	0.019476	0.309906	0.358737	0.117186	0.549230	0.356602
0.028129	0.070276	0.045459	0.042483	0.019456	0.310732	0.353500	0.117535	0.545301	0.351024
0.029468	0.068044	0.045196	0.042000	0.019429	0.311350	0.347994	0.117815	0.540828	0.345043
0.030874	0.065909	0.044949	0.041464	0.019391	0.311770	0.342258	0.118014	0.535844	0.338686
0.032349	0.063865	0.044703	0.040881	0.019341	0.311999	0.336324	0.118119	0.530382	0.331979
0.033893	0.061908	0.044442	0.040259	0.019278	0.312049	0.330224	0.118117	0.524478	0.324953
0.035505	0.060036	0.044154	0.039602	0.019200	0.311929	0.323982	0.117996	0.518170	0.317637
0.037186	0.058247	0.043828	0.038916	0.019106	0.311649	0.317624	0.117745	0.511498	0.310066
0.038936	0.056540	0.043458	0.038206	0.018996	0.311220	0.311174	0.117354	0.504498	0.302271
0.040754	0.054917	0.043040	0.037476	0.018868	0.310650	0.304654	0.116818	0.497204	0.294283
0.042640	0.053377	0.042573	0.036731	0.018721	0.309946	0.298089	0.116134	0.489642	0.286131
0.044595	0.051922	0.042057	0.035973	0.018556	0.309110	0.291503	0.115301	0.481834	0.277842
0.046620	0.050553	0.041492	0.035208	0.018373	0.308141	0.284923	0.114320	0.473796	0.269443
0.048717	0.049271	0.040878	0.034437	0.018171	0.307036	0.278371	0.113197	0.465544	0.260960
0.050890	0.048073	0.040219	0.033665	0.017950	0.305792	0.271875	0.111934	0.457095	0.252417
0.053143	0.046962	0.039515	0.032896	0.017712	0.304406	0.265456	0.110536	0.448469	0.243839
0.055478	0.045935	0.038771	0.032133	0.017458	0.302882	0.259136	0.109005	0.439691	0.235250
0.057899	0.044991	0.037988	0.031379	0.017188	0.301223	0.252935	0.107344	0.430784	0.226674
0.060409	0.044130	0.037171	0.030638	0.016905	0.299437	0.246869	0.105555	0.421773	0.218133
0.063010	0.043350	0.036324	0.029911	0.016610	0.297533	0.240952	0.103645	0.412691	0.209652
0.065704	0.042649	0.035449	0.029202	0.016305	0.295522	0.235194	0.101624	0.403574	0.201251
0.068494	0.042025	0.034552	0.028513	0.015992	0.293412	0.229607	0.099501	0.394463	0.192953
0.071379	0.041475	0.033636	0.027844	0.015672	0.291210	0.224198	0.097289	0.385395	0.184778
0.074361	0.040995	0.032705	0.027199	0.015348	0.288919	0.218973	0.095001	0.376408	0.176743
