/forceset/addlong_r/activation	/forceset/recfem_r/activation	/forceset/vaslat_r/activation	/forceset/vasmed_r/activation	/forceset/tibant_r/activation	/forceset/bflh_r/activation	/forceset/semiten_r/activation	/forceset/gaslat_r/activation	/forceset/gasmed_r/activation	/forceset/soleus_r/activation
0.045045	0.036409	0.002466	0.002455	-0.012526	-0.033285	0.045748	-0.007647	0.050001	-0.000028
0.059828	0.038239	0.002752	0.003186	-0.011061	-0.025023	0.048581	0.008746	0.058651	0.001657
0.074714	0.040127	0.003032	0.003906	-0.009623	-0.016932	0.051435	0.024803	0.067185	0.003316
0.089669	0.042070	0.003306	0.004614	-0.008217	-0.009040	0.054298	0.040452	0.075563	0.004940
0.104658	0.044065	0.003573	0.005305	-0.006846	-0.001378	0.057156	0.055621	0.083749	0.006525
0.119648	0.046110	0.003832	0.005977	-0.005515	0.006027	0.060001	0.070244	0.091708	0.008064
0.134606	0.048202	0.004082	0.006627	-0.004228	0.013148	0.062825	0.084263	0.099405	0.009552
0.149500	0.050337	0.004324	0.007253	-0.002987	0.019964	0.065619	0.097625	0.106810	0.010984
0.164304	0.052511	0.004555	0.007851	-0.001795	0.026453	0.068374	0.110282	0.113889	0.012354
0.178989	0.054720	0.004775	0.008421	-0.000654	0.032600	0.071081	0.122195	0.120612	0.013659
0.193532	0.056959	0.004985	0.008958	0.000437	0.038391	0.073728	0.133329	0.126951	0.014896
0.207911	0.059223	0.005183	0.009463	0.001478	0.043817	0.076306	0.143657	0.132877	0.016064
0.222105	0.061508	0.005369	0.009933	0.002468	0.048874	0.078802	0.153153	0.138367	0.017161
0.236095	0.063810	0.005544	0.010369	0.003407	0.053563	0.081206	0.161798	0.143398	0.018184
0.249862	0.066124	0.005706	0.010769	0.004296	0.057889	0.083509	0.169576	0.147956	0.019134
0.263389	0.068448	0.005856	0.011134	0.005135	0.061857	0.085703	0.176484	0.152033	0.020007
0.276658	0.070775	0.005992	0.011464	0.005926	0.065474	0.087778	0.182531	0.155625	0.020804
0.289649	0.073101	0.006115	0.011759	0.006669	0.068746	0.089731	0.187734	0.158733	0.021523
0.302345	0.075422	0.006225	0.012020	0.007364	0.071681	0.091556	0.192123	0.161360	0.022162
0.314732	0.077735	0.006322	0.012248	0.008012	0.074286	0.093248	0.195730	0.163513	0.022721
0.326800	0.080038	0.006408	0.012445	0.008616	0.076573	0.094804	0.198593	0.165199	0.023200
0.338542	0.082333	0.006482	0.012613	0.009175	0.078551	0.096223	0.200747	0.166426	0.023601
0.349954	0.084619	0.006545	0.012755	0.009693	0.080235	0.097501	0.202229	0.167208	0.023924
0.361031	0.086897	0.006598	0.012872	0.010171	0.081637	0.098639	0.203073	0.167562	0.024174
0.371767	0.089168	0.006643	0.012967	0.010611	0.082771	0.099637	0.203314	0.167512	0.024353
0.382153	0.091434	0.006678	0.013041	0.011017	0.083653	0.100495	0.202988	0.167081	0.024465
0.392174	0.093696	0.006706	0.013097	0.011390	0.084296	0.101219	0.202129	0.166294	0.024514
0.401816	0.095954	0.006726	0.013135	0.011732	0.084715	0.101813	0.200773	0.165172	0.024503
0.411063	0.098207	0.006738	0.013157	0.012048	0.084925	0.102282	0.198954	0.163738	0.024436
0.419904	0.100455	0.006743	0.013166	0.012338	0.084943	0.102629	0.196708	0.162011	0.024316
0.428328	0.102694	0.006741	0.013161	0.012606	0.084782	0.102857	0.194068	0.160012	0.024147
0.436336	0.104920	0.006732	0.013145	0.012854	0.084456	0.102970	0.191068	0.157760	0.023932
0.443931	0.107130	0.006716	0.013118	0.013084	0.083977	0.102971	0.187741	0.155274	0.023677
0.451127	0.109318	0.006694	0.013083	0.013299	0.083358	0.102864	0.184122	0.152574	0.023385
0.457940	0.111477	0.006665	0.013040	0.013501	0.082609	0.102655	0.180242	0.149678	0.023059
0.464394	0.113604	0.006629	0.012992	0.013691	0.081740	0.102348	0.176134	0.146606	0.022703
0.470514	0.115694	0.006588	0.012939	0.013872	0.080760	0.101947	0.171829	0.143376	0.022321
0.476325	0.117746	0.006540	0.012884	0.014045	0.079681	0.101455	0.167357	0.140009	0.021916
0.481851	0.119760	0.006486	0.012827	0.014212	0.078512	0.100876	0.162748	0.136522	0.021492
0.487111	0.121735	0.006426	0.012770	0.014375	0.077263	0.100213	0.158029	0.132936	0.021053
0.492119	0.123673	0.006362	0.012715	0.014536	0.075943	0.099470	0.153227	0.129267	0.020602
0.496885	0.125576	0.006293	0.012662	0.014695	0.074559	0.098649	0.148366	0.125535	0.020143
0.501412	0.127448	0.006220	0.012612	0.014854	0.073119	0.097755	0.143467	0.121755	0.019678
0.505699	0.129291	0.006143	0.012567	0.015015	0.071631	0.096793	0.138552	0.117945	0.019212
0.509742	0.131110	0.006063	0.012526	0.015179	0.070102	0.095769	0.133639	0.114120	0.018748
0.513527	0.132906	0.005980	0.012490	0.015347	0.068537	0.094689	0.128743	0.110294	0.018288
0.517036	0.134681	0.005895	0.012459	0.015522	0.066945	0.093560	0.123878	0.106481	0.017836
0.520246	0.136436	0.005808	0.012434	0.015704	0.065331	0.092388	0.119057	0.102691	0.017394
0.523130	0.138167	0.005720	0.012416	0.015898	0.063702	0.091181	0.114291	0.098936	0.016966
0.525660	0.139870	0.005632	0.012405	0.016105	0.062065	0.089945	0.109590	0.095223	0.016554
0.527812	0.141541	0.005542	0.012400	0.016330	0.060427	0.088688	0.104962	0.091559	0.016160
0.529562	0.143172	0.005452	0.012404	0.016574	0.058795	0.087415	0.100414	0.087952	0.015786
0.530897	0.144756	0.005361	0.012415	0.016842	0.057176	0.086130	0.095955	0.084405	0.015434
0.531809	0.146287	0.005271	0.012435	0.017135	0.055574	0.084838	0.091588	0.080924	0.015108
0.532295	0.147758	0.005181	0.012463	0.017457	0.053997	0.083543	0.087321	0.077512	0.014810
0.532362	0.149164	0.005091	0.012499	0.017812	0.052449	0.082246	0.083157	0.074171	0.014543
0.532024	0.150500	0.005001	0.012544	0.018202	0.050934	0.080951	0.079101	0.070906	0.014307
0.531302	0.151765	0.004913	0.012597	0.018632	0.049458	0.079659	0.075157	0.067719	0.014106
0.530221	0.152959	0.004825	0.012658	0.019104	0.048023	0.078373	0.071326	0.064611	0.013942
0.528812	0.154083	0.004739	0.012726	0.019624	0.046632	0.077096	0.067612	0.061587	0.013816
0.527104	0.155139	0.004655	0.012802	0.020196	0.045287	0.075832	0.064016	0.058647	0.013730
0.525121	0.156130	0.004572	0.012883	0.020823	0.043989	0.074584	0.060541	0.055795	0.013686
0.522888	0.157059	0.004492	0.012971	0.021510	0.042740	0.073355	0.057187	0.053031	0.013684
0.520422	0.157927	0.004414	0.013064	0.022262	0.041539	0.072149	0.053955	0.050358	0.013727
0.517746	0.158737	0.004338	0.013162	0.023083	0.040387	0.070968	0.050846	0.047778	0.013814
0.514886	0.159489	0.004266	0.013263	0.023977	0.039282	0.069816	0.047862	0.045290	0.013948
0.511870	0.160185	0.004196	0.013368	0.024948	0.038224	0.068695	0.045001	0.042897	0.014129
0.508734	0.160823	0.004129	0.013475	0.026000	0.037211	0.067605	0.042264	0.040599	0.014358
0.505515	0.161401	0.004066	0.013585	0.027137	0.036240	0.066548	0.039651	0.038396	0.014635
0.502257	0.161916	0.004006	0.013697	0.028362	0.035311	0.065523	0.037161	0.036287	0.014962
0.499006	0.162365	0.003951	0.013810	0.029679	0.034420	0.064531	0.034793	0.034272	0.015339
0.495812	0.162747	0.003899	0.013923	0.031092	0.033565	0.063569	0.032545	0.032349	0.015767
0.492725	0.163063	0.003851	0.014037	0.032604	0.032745	0.062638	0.030416	0.030517	0.016246
0.489795	0.163316	0.003808	0.014150	0.034220	0.031957	0.061738	0.028401	0.028773	0.016777
0.487067	0.163512	0.003769	0.014263	0.035943	0.031199	0.060868	0.026499	0.027115	0.017361
0.484581	0.163659	0.003734	0.014374	0.037777	0.030470	0.060028	0.024707	0.025542	0.017997
0.482371	0.163768	0.003703	0.014484	0.039727	0.029770	0.059220	0.023022	0.024049	0.018685
0.480463	0.163850	0.003676	0.014592	0.041795	0.029096	0.058442	0.021440	0.022635	0.019425
0.478878	0.163919	0.003654	0.014699	0.043984	0.028448	0.057695	0.019959	0.021296	0.020217
0.477629	0.163986	0.003635	0.014804	0.046297	0.027824	0.056979	0.018574	0.020030	0.021061
0.476722	0.164062	0.003621	0.014908	0.048737	0.027223	0.056296	0.017284	0.018833	0.021957
0.476164	0.164156	0.003609	0.015010	0.051308	0.026645	0.055645	0.016083	0.017703	0.022905
0.475953	0.164276	0.003602	0.015112	0.054012	0.026088	0.055028	0.014970	0.016637	0.023903
0.476087	0.164426	0.003597	0.015213	0.056853	0.025551	0.054444	0.013942	0.015634	0.024952
0.476560	0.164609	0.003596	0.015314	0.059835	0.025032	0.053894	0.012994	0.014689	0.026050
0.477358	0.164826	0.003597	0.015415	0.062960	0.024531	0.053378	0.012124	0.013802	0.027195
0.478466	0.165077	0.003602	0.015516	0.066231	0.024044	0.052893	0.011330	0.012970	0.028386
0.479860	0.165360	0.003608	0.015617	0.069649	0.023570	0.052438	0.010609	0.012190	0.029620
0.481514	0.165672	0.003618	0.015717	0.073215	0.023107	0.052012	0.009960	0.011460	0.030896
0.483401	0.166010	0.003629	0.015816	0.076928	0.022654	0.051611	0.009381	0.010778	0.032210
0.485493	0.166368	0.003643	0.015913	0.080790	0.022208	0.051235	0.008870	0.010140	0.033560
0.487761	0.166742	0.003660	0.016008	0.084800	0.021770	0.050880	0.008425	0.009546	0.034941
0.490180	0.167125	0.003678	0.016100	0.088957	0.021338	0.050545	0.008045	0.008993	0.036351
0.492730	0.167510	0.003698	0.016189	0.093260	0.020911	0.050229	0.007728	0.008478	0.037784
0.495394	0.167893	0.003720	0.016273	0.097709	0.020490	0.049929	0.007472	0.008001	0.039237
0.498163	0.168268	0.003744	0.016353	0.102302	0.020074	0.049645	0.007277	0.007558	0.040703
0.501031	0.168633	0.003770	0.016428	0.107036	0.019662	0.049375	0.007140	0.007150	0.042178
0.503998	0.168985	0.003797	0.016498	0.111910	0.019256	0.049119	0.007059	0.006774	0.043656
0.507065	0.169325	0.003825	0.016565	0.116921	0.018855	0.048876	0.007035	0.006428	0.045132
0.510232	0.169655	0.003855	0.016627	0.122065	0.018459	0.048648	0.007064	0.006112	0.046597
0.513496	0.169976	0.003886	0.016687	0.127335	0.018068	0.048434	0.007146	0.005823	0.048046
0.516851	0.170292	0.003918	0.016744	0.132725	0.017682	0.048234	0.007279	0.005561	0.049472
0.520283	0.170603	0.003951	0.016799	0.138226	0.017303	0.048050	0.007462	0.005325	0.050865
0.523772	0.170910	0.003985	0.016852	0.143827	0.016929	0.047880	0.007694	0.005112	0.052219
0.527297	0.171210	0.004020	0.016903	0.149518	0.016562	0.047725	0.007972	0.004924	0.053525
0.530834	0.171501	0.004056	0.016952	0.155286	0.016200	0.047583	0.008294	0.004758	0.054774
0.534364	0.171780	0.004093	0.017000	0.161119	0.015845	0.047453	0.008660	0.004614	0.055958
0.537873	0.172045	0.004130	0.017044	0.167009	0.015495	0.047333	0.009068	0.004491	0.057065
0.541352	0.172293	0.004169	0.017084	0.172945	0.015151	0.047222	0.009515	0.004390	0.058088
0.544801	0.172523	0.004209	0.017121	0.178918	0.014812	0.047117	0.010000	0.004308	0.059017
0.548224	0.172738	0.004250	0.017152	0.184918	0.014477	0.047019	0.010521	0.004247	0.059842
0.551633	0.172940	0.004293	0.017177	0.190933	0.014147	0.046925	0.011077	0.004205	0.060557
0.555044	0.173135	0.004336	0.017195	0.196950	0.013821	0.046835	0.011665	0.004181	0.061155
0.558477	0.173330	0.004381	0.017206	0.202955	0.013502	0.046748	0.012285	0.004174	0.061631
0.561951	0.173533	0.004426	0.017209	0.208934	0.013188	0.046665	0.012935	0.004185	0.061984
0.565488	0.173755	0.004473	0.017204	0.214874	0.012882	0.046585	0.013615	0.004213	0.062213
0.569103	0.174006	0.004522	0.017191	0.220761	0.012584	0.046508	0.014322	0.004256	0.062318
0.572808	0.174296	0.004571	0.017170	0.226582	0.012294	0.046436	0.015057	0.004313	0.062302
0.576608	0.174635	0.004621	0.017142	0.232322	0.012015	0.046367	0.015818	0.004385	0.062172
0.580499	0.175034	0.004672	0.017107	0.237965	0.011747	0.046304	0.016604	0.004470	0.061936
0.584474	0.175501	0.004723	0.017064	0.243496	0.011489	0.046245	0.017413	0.004568	0.061603
0.588517	0.176043	0.004776	0.017015	0.248906	0.011244	0.046192	0.018244	0.004678	0.061182
0.592614	0.176665	0.004828	0.016960	0.254187	0.011011	0.046144	0.019097	0.004798	0.060681
0.596746	0.177368	0.004881	0.016898	0.259333	0.010790	0.046100	0.019968	0.004930	0.060109
0.600894	0.178154	0.004935	0.016829	0.264339	0.010584	0.046060	0.020858	0.005070	0.059476
0.605041	0.179023	0.004988	0.016753	0.269200	0.010390	0.046021	0.021763	0.005220	0.058788
0.609171	0.179977	0.005042	0.016671	0.273913	0.010211	0.045983	0.022683	0.005378	0.058055
0.613271	0.181018	0.005095	0.016583	0.278478	0.010046	0.045942	0.023615	0.005544	0.057283
0.617330	0.182148	0.005148	0.016487	0.282897	0.009896	0.045898	0.024556	0.005716	0.056481
0.621346	0.183374	0.005200	0.016386	0.287175	0.009760	0.045849	0.025505	0.005896	0.055654
0.625315	0.184702	0.005251	0.016278	0.291316	0.009640	0.045792	0.026458	0.006081	0.054808
0.629242	0.186141	0.005300	0.016165	0.295322	0.009535	0.045726	0.027413	0.006273	0.053950
0.633133	0.187701	0.005348	0.016046	0.299195	0.009445	0.045650	0.028367	0.006469	0.053084
0.636995	0.189396	0.005393	0.015922	0.302934	0.009370	0.045562	0.029315	0.006670	0.052214
0.640833	0.191237	0.005437	0.015792	0.306539	0.009311	0.045460	0.030255	0.006876	0.051343
0.644652	0.193237	0.005478	0.015657	0.310015	0.009266	0.045344	0.031182	0.007085	0.050475
0.648448	0.195409	0.005516	0.015516	0.313372	0.009238	0.045213	0.032092	0.007297	0.049613
0.652211	0.197764	0.005552	0.015371	0.316622	0.009224	0.045067	0.032981	0.007512	0.048758
0.655923	0.200314	0.005586	0.015221	0.319778	0.009225	0.044905	0.033842	0.007729	0.047913
0.659559	0.203068	0.005616	0.015066	0.322856	0.009241	0.044728	0.034671	0.007948	0.047078
0.663087	0.206035	0.005644	0.014909	0.325877	0.009272	0.044536	0.035464	0.008167	0.046255
0.666472	0.209221	0.005669	0.014749	0.328860	0.009317	0.044328	0.036216	0.008386	0.045443
0.669681	0.212630	0.005692	0.014588	0.331824	0.009376	0.044105	0.036926	0.008605	0.044643
0.672679	0.216263	0.005711	0.014424	0.334787	0.009448	0.043865	0.037590	0.008822	0.043855
0.675437	0.220120	0.005728	0.014260	0.337764	0.009534	0.043608	0.038207	0.009036	0.043079
0.677930	0.224200	0.005741	0.014095	0.340770	0.009633	0.043331	0.038776	0.009248	0.042316
0.680132	0.228499	0.005752	0.013929	0.343818	0.009745	0.043032	0.039296	0.009455	0.041565
0.682025	0.233016	0.005760	0.013763	0.346919	0.009870	0.042709	0.039765	0.009657	0.040827
0.683591	0.237751	0.005764	0.013596	0.350082	0.010007	0.042363	0.040183	0.009853	0.040103
0.684818	0.242705	0.005766	0.013428	0.353314	0.010155	0.041991	0.040548	0.010043	0.039392
0.685698	0.247882	0.005764	0.013258	0.356618	0.010315	0.041593	0.040859	0.010225	0.038696
0.686230	0.253288	0.005759	0.013088	0.359996	0.010486	0.041171	0.041115	0.010399	0.038015
0.686419	0.258929	0.005751	0.012918	0.363446	0.010667	0.040725	0.041314	0.010563	0.037350
0.686268	0.264813	0.005740	0.012749	0.366962	0.010857	0.040258	0.041453	0.010719	0.036700
0.685783	0.270950	0.005727	0.012581	0.370539	0.011058	0.039773	0.041533	0.010864	0.036066
0.684959	0.277344	0.005713	0.012415	0.374167	0.011267	0.039272	0.041554	0.011000	0.035449
0.683788	0.283999	0.005697	0.012253	0.377838	0.011485	0.038758	0.041520	0.011125	0.034848
0.682254	0.290915	0.005680	0.012095	0.381547	0.011712	0.038233	0.041435	0.011242	0.034262
0.680340	0.298089	0.005663	0.011943	0.385295	0.011946	0.037701	0.041305	0.011350	0.033691
0.678030	0.305514	0.005646	0.011796	0.389093	0.012186	0.037162	0.041136	0.011449	0.033135
0.675312	0.313179	0.005630	0.011655	0.392951	0.012432	0.036618	0.040934	0.011540	0.032591
0.672177	0.321071	0.005614	0.011521	0.396879	0.012683	0.036070	0.040702	0.011622	0.032059
0.668626	0.329171	0.005599	0.011394	0.400882	0.012937	0.035520	0.040445	0.011696	0.031539
0.664668	0.337461	0.005586	0.011274	0.404959	0.013194	0.034968	0.040169	0.011763	0.031028
0.660319	0.345915	0.005573	0.011162	0.409106	0.013452	0.034416	0.039877	0.011821	0.030528
0.655603	0.354510	0.005562	0.011058	0.413314	0.013710	0.033864	0.039574	0.011873	0.030038
0.650551	0.363218	0.005553	0.010961	0.417574	0.013967	0.033313	0.039264	0.011918	0.029559
0.645192	0.372017	0.005545	0.010872	0.421880	0.014220	0.032766	0.038951	0.011958	0.029094
0.639555	0.380889	0.005538	0.010791	0.426230	0.014471	0.032224	0.038639	0.011992	0.028644
0.633661	0.389821	0.005534	0.010717	0.430624	0.014717	0.031689	0.038333	0.012023	0.028212
0.627527	0.398802	0.005532	0.010652	0.435064	0.014959	0.031163	0.038037	0.012049	0.027798
0.621165	0.407821	0.005533	0.010596	0.439551	0.015194	0.030650	0.037753	0.012071	0.027405
0.614587	0.416866	0.005537	0.010550	0.444086	0.015424	0.030150	0.037485	0.012091	0.027034
0.607805	0.425926	0.005544	0.010512	0.448672	0.015648	0.029667	0.037235	0.012109	0.026687
0.600834	0.434995	0.005553	0.010485	0.453314	0.015864	0.029201	0.037004	0.012126	0.026362
0.593696	0.444071	0.005567	0.010468	0.458014	0.016071	0.028756	0.036795	0.012142	0.026063
0.586412	0.453158	0.005583	0.010461	0.462773	0.016270	0.028331	0.036609	0.012159	0.025788
0.579011	0.462266	0.005603	0.010464	0.467593	0.016459	0.027928	0.036445	0.012177	0.025539
0.571520	0.471404	0.005627	0.010478	0.472476	0.016637	0.027549	0.036305	0.012196	0.025315
0.563966	0.480584	0.005654	0.010501	0.477429	0.016803	0.027195	0.036187	0.012219	0.025117
0.556369	0.489816	0.005686	0.010534	0.482459	0.016958	0.026866	0.036092	0.012244	0.024945
0.548747	0.499112	0.005720	0.010576	0.487577	0.017099	0.026563	0.036018	0.012274	0.024799
0.541117	0.508476	0.005759	0.010627	0.492788	0.017227	0.026287	0.035964	0.012309	0.024680
0.533494	0.517910	0.005801	0.010686	0.498095	0.017341	0.026038	0.035929	0.012349	0.024588
0.525899	0.527408	0.005847	0.010753	0.503495	0.017440	0.025816	0.035908	0.012395	0.024523
0.518357	0.536962	0.005895	0.010828	0.508980	0.017524	0.025620	0.035901	0.012447	0.024487
0.510896	0.546562	0.005947	0.010911	0.514536	0.017593	0.025451	0.035903	0.012505	0.024480
0.503544	0.556198	0.006001	0.011000	0.520150	0.017645	0.025308	0.035911	0.012570	0.024501
0.496330	0.565860	0.006058	0.011095	0.525806	0.017682	0.025190	0.035921	0.012641	0.024550
0.489276	0.575543	0.006117	0.011196	0.531488	0.017702	0.025096	0.035927	0.012719	0.024628
0.482401	0.585249	0.006177	0.011302	0.537179	0.017705	0.025025	0.035926	0.012802	0.024734
0.475720	0.594987	0.006239	0.011412	0.542869	0.017692	0.024975	0.035912	0.012891	0.024868
0.469245	0.604774	0.006302	0.011526	0.548559	0.017660	0.024945	0.035881	0.012985	0.025030
0.462991	0.614633	0.006366	0.011641	0.554254	0.017610	0.024933	0.035828	0.013083	0.025220
0.456977	0.624594	0.006430	0.011758	0.559964	0.017542	0.024937	0.035751	0.013187	0.025438
0.451228	0.634687	0.006494	0.011874	0.565693	0.017455	0.024954	0.035647	0.013295	0.025683
0.445771	0.644940	0.006558	0.011991	0.571447	0.017348	0.024983	0.035516	0.013408	0.025954
0.440632	0.655379	0.006621	0.012105	0.577231	0.017222	0.025021	0.035356	0.013526	0.026251
0.435834	0.666023	0.006683	0.012218	0.583057	0.017077	0.025066	0.035166	0.013648	0.026571
0.431397	0.676892	0.006743	0.012328	0.588944	0.016916	0.025115	0.034944	0.013775	0.026915
0.427338	0.688001	0.006802	0.012435	0.594912	0.016738	0.025167	0.034691	0.013905	0.027280
0.423671	0.699368	0.006858	0.012539	0.600981	0.016547	0.025218	0.034408	0.014039	0.027664
0.420405	0.711007	0.006911	0.012640	0.607167	0.016344	0.025266	0.034097	0.014177	0.028065
0.417544	0.722928	0.006962	0.012738	0.613484	0.016131	0.025311	0.033761	0.014318	0.028483
0.415085	0.735139	0.007011	0.012833	0.619944	0.015910	0.025352	0.033406	0.014462	0.028917
0.413023	0.747641	0.007058	0.012926	0.626554	0.015682	0.025387	0.033035	0.014610	0.029367
0.411342	0.760434	0.007104	0.013019	0.633317	0.015449	0.025417	0.032652	0.014760	0.029833
0.410025	0.773514	0.007149	0.013112	0.640231	0.015213	0.025442	0.032261	0.014915	0.030315
0.409047	0.786875	0.007194	0.013206	0.647288	0.014973	0.025463	0.031865	0.015073	0.030813
0.408382	0.800511	0.007239	0.013305	0.654475	0.014732	0.025481	0.031467	0.015236	0.031328
0.407998	0.814412	0.007284	0.013408	0.661771	0.014490	0.025495	0.031069	0.015402	0.031860
0.407862	0.828572	0.007331	0.013517	0.669146	0.014248	0.025507	0.030673	0.015574	0.032406
0.407937	0.842979	0.007379	0.013634	0.676567	0.014006	0.025515	0.030281	0.015750	0.032966
0.408187	0.857620	0.007428	0.013758	0.683996	0.013765	0.025519	0.029894	0.015930	0.033538
0.408574	0.872479	0.007479	0.013891	0.691390	0.013525	0.025520	0.029513	0.016115	0.034121
0.409060	0.887536	0.007532	0.014034	0.698695	0.013288	0.025516	0.029139	0.016304	0.034711
0.409610	0.902763	0.007587	0.014185	0.705858	0.013055	0.025507	0.028772	0.016496	0.035306
0.410186	0.918129	0.007644	0.014347	0.712825	0.012824	0.025491	0.028411	0.016691	0.035905
0.410755	0.933592	0.007703	0.014517	0.719549	0.012599	0.025469	0.028058	0.016888	0.036505
0.411285	0.949100	0.007764	0.014697	0.725998	0.012378	0.025439	0.027712	0.017087	0.037105
0.411745	0.964594	0.007827	0.014886	0.732144	0.012162	0.025400	0.027373	0.017287	0.037704
0.412109	0.980002	0.007892	0.015083	0.737966	0.011954	0.025351	0.027039	0.017487	0.038300
0.412347	0.995245	0.007961	0.015287	0.743442	0.011752	0.025292	0.026711	0.017688	0.038892
0.412430	1.010233	0.008032	0.015498	0.748562	0.011559	0.025222	0.026387	0.017887	0.039478
0.412327	1.024864	0.008106	0.015716	0.753318	0.011375	0.025140	0.026065	0.018084	0.040056
0.412011	1.039028	0.008184	0.015937	0.757704	0.011202	0.025044	0.025745	0.018278	0.040623
0.411449	1.052615	0.008264	0.016163	0.761706	0.011039	0.024936	0.025425	0.018467	0.041178
0.410613	1.065520	0.008348	0.016393	0.765304	0.010888	0.024815	0.025102	0.018650	0.041717
0.409472	1.077652	0.008434	0.016625	0.768473	0.010749	0.024680	0.024775	0.018824	0.042239
0.407992	1.088939	0.008524	0.016861	0.771193	0.010622	0.024533	0.024442	0.018989	0.042740
0.406146	1.099331	0.008617	0.017100	0.773449	0.010509	0.024374	0.024101	0.019141	0.043217
0.403904	1.108800	0.008713	0.017343	0.775234	0.010410	0.024202	0.023752	0.019281	0.043666
0.401246	1.117339	0.008811	0.017590	0.776542	0.010326	0.024018	0.023393	0.019406	0.044085
0.398157	1.124953	0.008912	0.017843	0.777370	0.010256	0.023823	0.023025	0.019515	0.044470
0.394627	1.131656	0.009014	0.018101	0.777724	0.010201	0.023614	0.022648	0.019609	0.044818
0.390655	1.137459	0.009118	0.018363	0.777622	0.010162	0.023393	0.022262	0.019685	0.045127
0.386243	1.142364	0.009221	0.018631	0.777100	0.010138	0.023159	0.021868	0.019744	0.045394
0.381400	1.146362	0.009325	0.018903	0.776202	0.010129	0.022911	0.021465	0.019785	0.045618
0.376137	1.149435	0.009428	0.019179	0.774977	0.010135	0.022650	0.021054	0.019807	0.045796
0.370467	1.151558	0.009529	0.019457	0.773475	0.010155	0.022375	0.020635	0.019809	0.045925
0.364404	1.152715	0.009629	0.019738	0.771748	0.010191	0.022085	0.020207	0.019791	0.046004
0.357958	1.152894	0.009725	0.020020	0.769847	0.010241	0.021781	0.019771	0.019752	0.046033
0.351137	1.152093	0.009818	0.020301	0.767822	0.010306	0.021463	0.019328	0.019694	0.046012
0.343954	1.150322	0.009907	0.020581	0.765715	0.010385	0.021132	0.018877	0.019615	0.045943
0.336422	1.147599	0.009993	0.020860	0.763561	0.010479	0.020787	0.018419	0.019517	0.045830
0.328563	1.143955	0.010076	0.021137	0.761389	0.010586	0.020431	0.017957	0.019402	0.045678
0.320404	1.139431	0.010154	0.021412	0.759229	0.010707	0.020065	0.017492	0.019270	0.045492
0.311980	1.134083	0.010230	0.021686	0.757110	0.010840	0.019691	0.017025	0.019123	0.045276
0.303329	1.127977	0.010302	0.021957	0.755056	0.010986	0.019310	0.016558	0.018963	0.045037
0.294495	1.121192	0.010372	0.022228	0.753086	0.011144	0.018924	0.016094	0.018790	0.044776
0.285518	1.113813	0.010437	0.022496	0.751212	0.011313	0.018534	0.015632	0.018607	0.044500
0.276439	1.105921	0.010499	0.022761	0.749442	0.011494	0.018142	0.015174	0.018413	0.044209
0.267297	1.097590	0.010557	0.023023	0.747788	0.011687	0.017748	0.014722	0.018210	0.043908
0.258128	1.088885	0.010611	0.023281	0.746258	0.011890	0.017354	0.014275	0.017998	0.043598
0.248963	1.079866	0.010660	0.023534	0.744863	0.012104	0.016961	0.013834	0.017778	0.043282
0.239834	1.070590	0.010704	0.023781	0.743609	0.012329	0.016570	0.013400	0.017551	0.042962
0.230766	1.061111	0.010742	0.024021	0.742505	0.012564	0.016183	0.012974	0.017319	0.042642
0.221782	1.051486	0.010776	0.024254	0.741564	0.012808	0.015799	0.012556	0.017083	0.042323
0.212901	1.041767	0.010805	0.024478	0.740798	0.013061	0.015421	0.012147	0.016843	0.042007
0.204140	1.032006	0.010829	0.024692	0.740219	0.013322	0.015048	0.011748	0.016603	0.041698
0.195514	1.022251	0.010849	0.024894	0.739838	0.013590	0.014683	0.011359	0.016362	0.041398
0.187035	1.012550	0.010866	0.025084	0.739674	0.013865	0.014324	0.010980	0.016122	0.041109
0.178714	1.002949	0.010880	0.025261	0.739745	0.014146	0.013974	0.010613	0.015884	0.040834
0.170561	0.993493	0.010892	0.025424	0.740068	0.014431	0.013631	0.010257	0.015649	0.040576
0.162583	0.984231	0.010901	0.025572	0.740655	0.014719	0.013297	0.009912	0.015419	0.040337
0.154788	0.975216	0.010908	0.025705	0.741508	0.015009	0.012972	0.009580	0.015194	0.040118
0.147182	0.966506	0.010913	0.025822	0.742626	0.015299	0.012655	0.009259	0.014974	0.039921
0.139770	0.958159	0.010916	0.025925	0.744003	0.015589	0.012347	0.008951	0.014761	0.039747
0.132558	0.950230	0.010916	0.026012	0.745622	0.015875	0.012048	0.008656	0.014556	0.039595
0.125550	0.942768	0.010913	0.026085	0.747462	0.016158	0.011759	0.008373	0.014359	0.039466
0.118751	0.935811	0.010906	0.026142	0.749498	0.016435	0.011479	0.008102	0.014171	0.039361
0.112165	0.929389	0.010896	0.026185	0.751700	0.016704	0.011208	0.007845	0.013992	0.039278
0.105794	0.923521	0.010882	0.026213	0.754036	0.016964	0.010947	0.007599	0.013821	0.039217
0.099642	0.918220	0.010865	0.026226	0.756467	0.017213	0.010695	0.007365	0.013660	0.039178
0.093710	0.913492	0.010843	0.026223	0.758946	0.017449	0.010453	0.007144	0.013507	0.039160
0.088000	0.909343	0.010816	0.026202	0.761416	0.017671	0.010219	0.006933	0.013363	0.039159
0.082513	0.905776	0.010786	0.026163	0.763810	0.017878	0.009993	0.006733	0.013227	0.039176
0.077249	0.902792	0.010750	0.026105	0.766052	0.018069	0.009776	0.006542	0.013097	0.039207
0.072208	0.900392	0.010711	0.026027	0.768062	0.018244	0.009566	0.006361	0.012975	0.039251
0.067388	0.898578	0.010667	0.025929	0.769763	0.018402	0.009364	0.006188	0.012858	0.039306
0.062789	0.897350	0.010618	0.025809	0.771083	0.018543	0.009169	0.006022	0.012745	0.039369
0.058407	0.896707	0.010564	0.025669	0.771968	0.018666	0.008980	0.005863	0.012637	0.039437
0.054239	0.896646	0.010505	0.025509	0.772374	0.018773	0.008799	0.005710	0.012531	0.039507
0.050280	0.897158	0.010442	0.025330	0.772271	0.018862	0.008625	0.005562	0.012428	0.039575
0.046526	0.898229	0.010373	0.025133	0.771634	0.018935	0.008457	0.005419	0.012325	0.039638
0.042971	0.899837	0.010299	0.024920	0.770437	0.018991	0.008297	0.005280	0.012222	0.039693
0.039610	0.901958	0.010219	0.024691	0.768659	0.019030	0.008144	0.005146	0.012121	0.039736
0.036436	0.904558	0.010134	0.024448	0.766293	0.019053	0.007998	0.005016	0.012019	0.039768
0.033442	0.907603	0.010043	0.024191	0.763347	0.019060	0.007858	0.004891	0.011917	0.039784
0.030622	0.911054	0.009946	0.023921	0.759838	0.019052	0.007726	0.004771	0.011816	0.039785
0.027970	0.914883	0.009844	0.023639	0.755794	0.019032	0.007601	0.004656	0.011714	0.039769
0.025478	0.919067	0.009737	0.023345	0.751240	0.019000	0.007483	0.004546	0.011612	0.039734
0.023140	0.923593	0.009625	0.023041	0.746206	0.018959	0.007373	0.004441	0.011510	0.039679
0.020951	0.928446	0.009509	0.022727	0.740718	0.018911	0.007270	0.004343	0.011407	0.039600
0.018903	0.933604	0.009389	0.022404	0.734801	0.018859	0.007175	0.004250	0.011304	0.039495
0.016991	0.939036	0.009266	0.022073	0.728472	0.018805	0.007087	0.004164	0.011201	0.039364
0.015210	0.944701	0.009141	0.021738	0.721746	0.018752	0.007007	0.004086	0.011097	0.039203
0.013554	0.950550	0.009015	0.021398	0.714643	0.018703	0.006935	0.004014	0.010992	0.039011
0.012018	0.956530	0.008888	0.021057	0.707190	0.018660	0.006870	0.003951	0.010888	0.038789
0.010596	0.962580	0.008760	0.020716	0.699430	0.018626	0.006812	0.003896	0.010783	0.038538
0.009284	0.968637	0.008633	0.020379	0.691418	0.018602	0.006761	0.003849	0.010677	0.038258
0.008076	0.974631	0.008506	0.020046	0.683209	0.018593	0.006717	0.003811	0.010573	0.037953
0.006967	0.980486	0.008381	0.019720	0.674861	0.018599	0.006680	0.003781	0.010469	0.037624
0.005953	0.986126	0.008257	0.019402	0.666432	0.018622	0.006650	0.003762	0.010366	0.037275
0.005030	0.991488	0.008136	0.019094	0.657984	0.018666	0.006627	0.003752	0.010265	0.036907
0.004193	0.996521	0.008017	0.018796	0.649581	0.018732	0.006610	0.003751	0.010167	0.036522
0.003437	1.001187	0.007901	0.018510	0.641284	0.018824	0.006599	0.003762	0.010071	0.036121
0.002759	1.005458	0.007789	0.018234	0.633149	0.018942	0.006595	0.003783	0.009978	0.035707
0.002154	1.009303	0.007681	0.017971	0.625223	0.019090	0.006595	0.003815	0.009888	0.035282
0.001618	1.012686	0.007577	0.017720	0.617550	0.019270	0.006601	0.003859	0.009801	0.034846
0.001146	1.015560	0.007477	0.017481	0.610163	0.019485	0.006611	0.003916	0.009717	0.034404
0.000735	1.017876	0.007382	0.017255	0.603093	0.019739	0.006625	0.003985	0.009637	0.033958
0.000380	1.019586	0.007292	0.017041	0.596365	0.020033	0.006643	0.004067	0.009560	0.033511
0.000077	1.020650	0.007207	0.016841	0.590000	0.020374	0.006663	0.004164	0.009488	0.033066
-0.000177	1.021042	0.007126	0.016655	0.584015	0.020764	0.006686	0.004274	0.009420	0.032626
-0.000387	1.020754	0.007051	0.016484	0.578422	0.021208	0.006711	0.004399	0.009358	0.032193
-0.000556	1.019799	0.006982	0.016328	0.573229	0.021709	0.006738	0.004539	0.009301	0.031771
-0.000687	1.018208	0.006917	0.016190	0.568437	0.022271	0.006766	0.004695	0.009251	0.031362
-0.000784	1.016027	0.006859	0.016069	0.564044	0.022897	0.006796	0.004866	0.009208	0.030967
-0.000849	1.013306	0.006806	0.015967	0.560040	0.023591	0.006827	0.005054	0.009172	0.030590
-0.000885	1.010100	0.006759	0.015884	0.556411	0.024357	0.006861	0.005258	0.009144	0.030232
-0.000895	1.006458	0.006718	0.015822	0.553135	0.025197	0.006896	0.005479	0.009123	0.029895
-0.000881	1.002419	0.006683	0.015779	0.550192	0.026116	0.006935	0.005716	0.009111	0.029579
-0.000845	0.998015	0.006653	0.015757	0.547557	0.027116	0.006977	0.005971	0.009107	0.029286
-0.000788	0.993261	0.006628	0.015756	0.545198	0.028203	0.007023	0.006243	0.009110	0.029016
-0.000715	0.988169	0.006609	0.015775	0.543080	0.029379	0.007074	0.006532	0.009123	0.028770
-0.000625	0.982741	0.006594	0.015814	0.541160	0.030650	0.007129	0.006838	0.009143	0.028547
-0.000522	0.976985	0.006585	0.015872	0.539388	0.032018	0.007190	0.007160	0.009171	0.028348
-0.000406	0.970912	0.006579	0.015950	0.537713	0.033488	0.007257	0.007499	0.009208	0.028174
-0.000280	0.964540	0.006577	0.016045	0.536082	0.035064	0.007330	0.007855	0.009253	0.028024
-0.000143	0.957896	0.006578	0.016156	0.534445	0.036749	0.007410	0.008226	0.009305	0.027900
0.000001	0.951014	0.006583	0.016283	0.532759	0.038546	0.007497	0.008614	0.009365	0.027801
0.000153	0.943940	0.006589	0.016423	0.530981	0.040458	0.007592	0.009016	0.009432	0.027728
0.000311	0.936727	0.006597	0.016575	0.529074	0.042490	0.007695	0.009433	0.009506	0.027680
0.000475	0.929434	0.006606	0.016738	0.527002	0.044644	0.007806	0.009864	0.009587	0.027656
0.000643	0.922129	0.006616	0.016909	0.524737	0.046926	0.007926	0.010309	0.009673	0.027656
0.000814	0.914880	0.006626	0.017086	0.522264	0.049337	0.008056	0.010766	0.009765	0.027679
0.000987	0.907757	0.006637	0.017269	0.519581	0.051882	0.008195	0.011234	0.009862	0.027725
0.001162	0.900822	0.006646	0.017455	0.516690	0.054564	0.008344	0.011712	0.009962	0.027794
0.001338	0.894134	0.006656	0.017645	0.513593	0.057386	0.008503	0.012200	0.010067	0.027886
0.001514	0.887742	0.006665	0.017836	0.510293	0.060350	0.008672	0.012695	0.010174	0.028000
0.001689	0.881681	0.006672	0.018029	0.506792	0.063461	0.008852	0.013197	0.010283	0.028136
0.001862	0.875978	0.006679	0.018223	0.503086	0.066721	0.009042	0.013704	0.010394	0.028292
0.002035	0.870644	0.006685	0.018417	0.499173	0.070133	0.009243	0.014216	0.010506	0.028468
0.002204	0.865682	0.006689	0.018611	0.495048	0.073699	0.009454	0.014731	0.010617	0.028662
0.002372	0.861082	0.006692	0.018805	0.490705	0.077420	0.009676	0.015248	0.010726	0.028872
0.002536	0.856829	0.006693	0.018999	0.486139	0.081295	0.009909	0.015765	0.010834	0.029096
0.002698	0.852895	0.006692	0.019192	0.481351	0.085325	0.010151	0.016282	0.010937	0.029333
0.002855	0.849244	0.006690	0.019383	0.476354	0.089507	0.010404	0.016797	0.011037	0.029579
0.003009	0.845836	0.006684	0.019571	0.471171	0.093837	0.010666	0.017308	0.011131	0.029832
0.003159	0.842629	0.006677	0.019756	0.465830	0.098312	0.010938	0.017814	0.011220	0.030090
0.003304	0.839586	0.006666	0.019937	0.460363	0.102926	0.011219	0.018314	0.011304	0.030349
0.003445	0.836675	0.006653	0.020114	0.454810	0.107672	0.011510	0.018805	0.011381	0.030608
0.003581	0.833873	0.006638	0.020287	0.449215	0.112542	0.011809	0.019286	0.011453	0.030862
0.003712	0.831161	0.006621	0.020457	0.443633	0.117524	0.012117	0.019755	0.011517	0.031108
0.003839	0.828526	0.006604	0.020624	0.438118	0.122610	0.012434	0.020208	0.011574	0.031343
0.003960	0.825957	0.006586	0.020790	0.432722	0.127786	0.012759	0.020644	0.011623	0.031563
0.004077	0.823437	0.006568	0.020954	0.427495	0.133039	0.013092	0.021059	0.011665	0.031766
0.004189	0.820952	0.006551	0.021117	0.422481	0.138356	0.013432	0.021452	0.011699	0.031952
0.004295	0.818488	0.006535	0.021279	0.417722	0.143722	0.013781	0.021819	0.011726	0.032118
0.004397	0.816037	0.006520	0.021441	0.413255	0.149119	0.014138	0.022158	0.011746	0.032265
0.004493	0.813606	0.006507	0.021601	0.409117	0.154530	0.014504	0.022467	0.011759	0.032391
0.004584	0.811214	0.006497	0.021759	0.405342	0.159938	0.014878	0.022744	0.011767	0.032495
0.004671	0.808887	0.006489	0.021915	0.401965	0.165324	0.015260	0.022990	0.011769	0.032577
0.004752	0.806655	0.006485	0.022068	0.399013	0.170668	0.015650	0.023202	0.011767	0.032635
0.004829	0.804546	0.006484	0.022216	0.396514	0.175950	0.016047	0.023380	0.011759	0.032669
0.004901	0.802589	0.006486	0.022360	0.394489	0.181146	0.016450	0.023523	0.011748	0.032679
0.004969	0.800821	0.006493	0.022496	0.392953	0.186232	0.016859	0.023629	0.011733	0.032663
0.005031	0.799287	0.006503	0.022625	0.391916	0.191183	0.017273	0.023701	0.011714	0.032624
0.005089	0.798035	0.006517	0.022743	0.391383	0.195975	0.017690	0.023738	0.011693	0.032561
0.005143	0.797114	0.006534	0.022851	0.391353	0.200584	0.018108	0.023743	0.011669	0.032478
0.005192	0.796568	0.006555	0.022947	0.391821	0.204989	0.018527	0.023719	0.011643	0.032377
0.005237	0.796433	0.006579	0.023028	0.392779	0.209172	0.018945	0.023669	0.011615	0.032260
0.005277	0.796739	0.006607	0.023095	0.394219	0.213119	0.019360	0.023596	0.011586	0.032131
0.005314	0.797510	0.006637	0.023147	0.396134	0.216816	0.019770	0.023502	0.011554	0.031990
0.005347	0.798762	0.006670	0.023182	0.398515	0.220252	0.020174	0.023389	0.011521	0.031841
0.005375	0.800508	0.006705	0.023200	0.401351	0.223417	0.020569	0.023260	0.011486	0.031686
0.005399	0.802747	0.006743	0.023200	0.404627	0.226296	0.020954	0.023115	0.011449	0.031527
0.005420	0.805470	0.006782	0.023183	0.408327	0.228876	0.021325	0.022958	0.011410	0.031366
0.005436	0.808659	0.006822	0.023147	0.412430	0.231140	0.021680	0.022790	0.011368	0.031203
0.005448	0.812287	0.006863	0.023090	0.416917	0.233072	0.022016	0.022612	0.011325	0.031040
0.005456	0.816314	0.006905	0.023013	0.421762	0.234662	0.022332	0.022426	0.011279	0.030879
0.005460	0.820691	0.006946	0.022914	0.426940	0.235900	0.022625	0.022234	0.011232	0.030719
0.005460	0.825359	0.006986	0.022794	0.432420	0.236784	0.022894	0.022037	0.011184	0.030562
0.005457	0.830251	0.007027	0.022653	0.438168	0.237316	0.023138	0.021835	0.011136	0.030411
0.005449	0.835295	0.007066	0.022492	0.444148	0.237504	0.023355	0.021629	0.011090	0.030266
0.005438	0.840416	0.007105	0.022311	0.450318	0.237360	0.023543	0.021420	0.011045	0.030129
0.005423	0.845536	0.007143	0.022113	0.456635	0.236897	0.023701	0.021209	0.011004	0.030001
0.005404	0.850578	0.007181	0.021898	0.463056	0.236130	0.023827	0.020996	0.010966	0.029883
0.005381	0.855470	0.007219	0.021668	0.469537	0.235071	0.023920	0.020781	0.010933	0.029777
0.005354	0.860141	0.007256	0.021424	0.476037	0.233731	0.023979	0.020564	0.010905	0.029681
0.005323	0.864528	0.007293	0.021166	0.482519	0.232120	0.024002	0.020346	0.010884	0.029596
0.005288	0.868579	0.007328	0.020895	0.488948	0.230246	0.023990	0.020127	0.010869	0.029522
0.005250	0.872252	0.007363	0.020611	0.495293	0.228118	0.023942	0.019907	0.010860	0.029459
0.005207	0.875513	0.007397	0.020316	0.501522	0.225747	0.023860	0.019688	0.010859	0.029406
0.005160	0.878333	0.007431	0.020011	0.507603	0.223144	0.023745	0.019469	0.010865	0.029363
0.005109	0.880677	0.007464	0.019695	0.513509	0.220322	0.023599	0.019253	0.010877	0.029331
0.005055	0.882505	0.007497	0.019372	0.519220	0.217297	0.023423	0.019039	0.010897	0.029310
0.004995	0.883767	0.007530	0.019041	0.524723	0.214083	0.023219	0.018829	0.010924	0.029299
0.004932	0.884398	0.007564	0.018705	0.530009	0.210699	0.022989	0.018623	0.010958	0.029300
0.004864	0.884327	0.007600	0.018366	0.535066	0.207162	0.022734	0.018421	0.010998	0.029313
0.004793	0.883481	0.007637	0.018025	0.539882	0.203493	0.022455	0.018225	0.011044	0.029338
0.004716	0.881794	0.007675	0.017683	0.544444	0.199709	0.022153	0.018034	0.011096	0.029376
0.004636	0.879217	0.007716	0.017343	0.548743	0.195829	0.021830	0.017849	0.011153	0.029428
0.004551	0.875725	0.007758	0.017004	0.552774	0.191869	0.021488	0.017671	0.011214	0.029492
0.004462	0.871318	0.007803	0.016670	0.556542	0.187842	0.021127	0.017499	0.011280	0.029571
0.004369	0.866024	0.007850	0.016341	0.560054	0.183759	0.020749	0.017335	0.011348	0.029661
0.004271	0.859890	0.007898	0.016018	0.563315	0.179631	0.020357	0.017177	0.011419	0.029764
0.004169	0.852984	0.007949	0.015702	0.566329	0.175464	0.019951	0.017026	0.011492	0.029879
0.004062	0.845385	0.008001	0.015396	0.569104	0.171264	0.019534	0.016883	0.011566	0.030005
0.003951	0.837179	0.008055	0.015098	0.571654	0.167035	0.019108	0.016746	0.011642	0.030141
0.003836	0.828448	0.008110	0.014811	0.574001	0.162780	0.018675	0.016616	0.011718	0.030288
0.003716	0.819268	0.008166	0.014535	0.576167	0.158500	0.018236	0.016494	0.011794	0.030445
0.003592	0.809705	0.008223	0.014269	0.578169	0.154201	0.017795	0.016379	0.011872	0.030612
0.003463	0.799815	0.008279	0.014016	0.580021	0.149885	0.017354	0.016271	0.011951	0.030790
0.003331	0.789646	0.008336	0.013775	0.581734	0.145557	0.016914	0.016170	0.012031	0.030979
0.003195	0.779239	0.008391	0.013547	0.583321	0.141223	0.016477	0.016077	0.012114	0.031179
0.003054	0.768631	0.008446	0.013331	0.584790	0.136889	0.016046	0.015990	0.012201	0.031388
0.002910	0.757852	0.008499	0.013128	0.586153	0.132563	0.015620	0.015909	0.012290	0.031607
0.002761	0.746925	0.008550	0.012937	0.587420	0.128256	0.015202	0.015833	0.012382	0.031834
0.002609	0.735867	0.008600	0.012758	0.588598	0.123976	0.014792	0.015762	0.012478	0.032070
0.002453	0.724682	0.008648	0.012592	0.589691	0.119735	0.014392	0.015694	0.012577	0.032313
0.002293	0.713366	0.008694	0.012438	0.590701	0.115539	0.014001	0.015631	0.012679	0.032563
0.002131	0.701912	0.008738	0.012296	0.591630	0.111398	0.013620	0.015570	0.012784	0.032819
0.001966	0.690310	0.008781	0.012164	0.592487	0.107317	0.013249	0.015512	0.012892	0.033079
0.001798	0.678558	0.008823	0.012043	0.593288	0.103301	0.012889	0.015457	0.013002	0.033342
0.001629	0.666659	0.008864	0.011932	0.594050	0.099357	0.012539	0.015403	0.013115	0.033607
0.001459	0.654629	0.008905	0.011829	0.594790	0.095488	0.012200	0.015352	0.013229	0.033874
0.001288	0.642487	0.008946	0.011734	0.595521	0.091698	0.011870	0.015302	0.013346	0.034142
0.001116	0.630258	0.008986	0.011647	0.596256	0.087991	0.011551	0.015253	0.013465	0.034412
0.000945	0.617968	0.009027	0.011566	0.597003	0.084371	0.011241	0.015205	0.013586	0.034684
0.000775	0.605647	0.009068	0.011492	0.597766	0.080841	0.010940	0.015158	0.013709	0.034958
0.000606	0.593330	0.009109	0.011424	0.598541	0.077403	0.010647	0.015111	0.013835	0.035233
0.000441	0.581056	0.009149	0.011362	0.599319	0.074058	0.010362	0.015065	0.013963	0.035511
0.000279	0.568869	0.009189	0.011305	0.600086	0.070807	0.010084	0.015019	0.014093	0.035788
0.000122	0.556812	0.009228	0.011253	0.600830	0.067650	0.009813	0.014974	0.014225	0.036065
-0.000029	0.544928	0.009266	0.011207	0.601543	0.064588	0.009548	0.014928	0.014359	0.036341
-0.000173	0.533250	0.009303	0.011166	0.602216	0.061622	0.009290	0.014881	0.014494	0.036614
-0.000308	0.521810	0.009340	0.011129	0.602838	0.058751	0.009039	0.014832	0.014630	0.036882
-0.000434	0.510634	0.009377	0.011096	0.603394	0.055978	0.008793	0.014782	0.014765	0.037143
-0.000548	0.499744	0.009414	0.011066	0.603862	0.053303	0.008553	0.014728	0.014899	0.037398
-0.000650	0.489155	0.009452	0.011039	0.604214	0.050728	0.008320	0.014671	0.015031	0.037643
-0.000737	0.478875	0.009492	0.011015	0.604415	0.048256	0.008092	0.014609	0.015158	0.037878
-0.000809	0.468907	0.009535	0.010992	0.604429	0.045888	0.007869	0.014542	0.015280	0.038103
-0.000863	0.459247	0.009580	0.010971	0.604211	0.043626	0.007652	0.014467	0.015396	0.038316
-0.000898	0.449886	0.009628	0.010950	0.603721	0.041471	0.007439	0.014384	0.015503	0.038517
-0.000911	0.440817	0.009680	0.010931	0.602916	0.039425	0.007231	0.014292	0.015602	0.038707
-0.000900	0.432033	0.009735	0.010913	0.601753	0.037492	0.007026	0.014191	0.015690	0.038884
-0.000863	0.423532	0.009793	0.010896	0.600189	0.035674	0.006824	0.014079	0.015769	0.039050
-0.000798	0.415317	0.009856	0.010882	0.598177	0.033974	0.006625	0.013957	0.015838	0.039204
-0.000700	0.407399	0.009922	0.010871	0.595674	0.032395	0.006428	0.013825	0.015896	0.039346
-0.000569	0.399790	0.009991	0.010863	0.592654	0.030940	0.006234	0.013681	0.015943	0.039476
-0.000399	0.392507	0.010064	0.010860	0.589101	0.029611	0.006042	0.013527	0.015979	0.039591
-0.000189	0.385561	0.010140	0.010861	0.585012	0.028410	0.005852	0.013361	0.016004	0.039693
0.000065	0.378964	0.010219	0.010868	0.580385	0.027339	0.005665	0.013184	0.016017	0.039779
0.000367	0.372720	0.010302	0.010881	0.575226	0.026399	0.005482	0.012995	0.016018	0.039850
0.000720	0.366828	0.010388	0.010902	0.569547	0.025590	0.005304	0.012794	0.016008	0.039905
0.001127	0.361284	0.010477	0.010932	0.563373	0.024914	0.005130	0.012582	0.015986	0.039945
0.001593	0.356076	0.010571	0.010972	0.556743	0.024371	0.004964	0.012358	0.015953	0.039969
0.002122	0.351192	0.010668	0.011022	0.549698	0.023960	0.004804	0.012125	0.015911	0.039976
0.002718	0.346614	0.010770	0.011085	0.542284	0.023683	0.004652	0.011882	0.015859	0.039968
0.003385	0.342326	0.010876	0.011160	0.534543	0.023537	0.004510	0.011630	0.015799	0.039943
0.004129	0.338314	0.010988	0.011250	0.526515	0.023524	0.004377	0.011370	0.015731	0.039900
0.004954	0.334563	0.011105	0.011355	0.518242	0.023643	0.004255	0.011102	0.015656	0.039840
0.005863	0.331061	0.011228	0.011476	0.509762	0.023893	0.004144	0.010829	0.015575	0.039761
0.006862	0.327796	0.011359	0.011613	0.501110	0.024274	0.004046	0.010549	0.015488	0.039662
0.007955	0.324756	0.011497	0.011769	0.492318	0.024785	0.003962	0.010265	0.015396	0.039542
0.009146	0.321925	0.011643	0.011942	0.483412	0.025427	0.003891	0.009976	0.015300	0.039401
0.010439	0.319288	0.011798	0.012135	0.474414	0.026198	0.003834	0.009684	0.015199	0.039238
0.011837	0.316824	0.011963	0.012346	0.465347	0.027099	0.003793	0.009389	0.015095	0.039053
0.013346	0.314513	0.012139	0.012577	0.456223	0.028129	0.003769	0.009091	0.014989	0.038845
0.014969	0.312330	0.012327	0.012828	0.447056	0.029286	0.003761	0.008791	0.014879	0.038613
0.016709	0.310245	0.012528	0.013099	0.437848	0.030571	0.003770	0.008491	0.014768	0.038357
0.018572	0.308226	0.012742	0.013389	0.428602	0.031983	0.003799	0.008190	0.014655	0.038075
0.020562	0.306239	0.012970	0.013700	0.419310	0.033521	0.003848	0.007888	0.014541	0.037768
0.022683	0.304250	0.013213	0.014032	0.409966	0.035182	0.003917	0.007588	0.014426	0.037437
0.024940	0.302222	0.013472	0.014384	0.400561	0.036966	0.004008	0.007288	0.014311	0.037082
0.027337	0.300121	0.013747	0.014755	0.391089	0.038869	0.004122	0.006990	0.014196	0.036706
0.029880	0.297913	0.014037	0.015146	0.381551	0.040888	0.004261	0.006695	0.014081	0.036310
0.032573	0.295567	0.014344	0.015557	0.371949	0.043022	0.004425	0.006403	0.013968	0.035895
0.035420	0.293059	0.014668	0.015987	0.362290	0.045267	0.004616	0.006114	0.013855	0.035463
0.038426	0.290367	0.015008	0.016437	0.352578	0.047619	0.004835	0.005830	0.013743	0.035014
0.041597	0.287483	0.015364	0.016905	0.342818	0.050074	0.005084	0.005551	0.013631	0.034549
0.044936	0.284400	0.015736	0.017391	0.333011	0.052629	0.005364	0.005278	0.013519	0.034066
0.048449	0.281122	0.016123	0.017895	0.323162	0.055278	0.005677	0.005012	0.013408	0.033567
0.052139	0.277654	0.016524	0.018417	0.313279	0.058016	0.006025	0.004753	0.013296	0.033049
0.056012	0.274003	0.016937	0.018955	0.303372	0.060837	0.006408	0.004502	0.013184	0.032515
0.060070	0.270177	0.017362	0.019509	0.293453	0.063734	0.006829	0.004259	0.013071	0.031964
0.064317	0.266183	0.017797	0.020076	0.283533	0.066699	0.007291	0.004025	0.012958	0.031396
0.068755	0.262028	0.018240	0.020657	0.273623	0.069726	0.007794	0.003802	0.012846	0.030813
0.073385	0.257728	0.018688	0.021250	0.263735	0.072806	0.008342	0.003589	0.012733	0.030216
0.078208	0.253304	0.019140	0.021853	0.253883	0.075932	0.008935	0.003388	0.012621	0.029606
0.083222	0.248780	0.019593	0.022464	0.244080	0.079097	0.009577	0.003199	0.012509	0.028986
0.088427	0.244184	0.020045	0.023082	0.234348	0.082292	0.010269	0.003023	0.012398	0.028356
0.093818	0.239541	0.020494	0.023704	0.224704	0.085511	0.011012	0.002861	0.012288	0.027718
0.099392	0.234877	0.020939	0.024329	0.215168	0.088745	0.011810	0.002713	0.012179	0.027075
0.105145	0.230214	0.021378	0.024955	0.205757	0.091986	0.012663	0.002580	0.012069	0.026428
0.111071	0.225575	0.021809	0.025581	0.196490	0.095228	0.013573	0.002464	0.011960	0.025778
0.117164	0.220981	0.022233	0.026204	0.187383	0.098462	0.014543	0.002364	0.011849	0.025126
0.123416	0.216451	0.022648	0.026825	0.178451	0.101680	0.015572	0.002281	0.011738	0.024474
0.129819	0.212004	0.023053	0.027441	0.169709	0.104873	0.016664	0.002217	0.011624	0.023822
0.136367	0.207656	0.023450	0.028051	0.161168	0.108033	0.017820	0.002172	0.011509	0.023171
0.143048	0.203423	0.023836	0.028652	0.152839	0.111154	0.019040	0.002146	0.011390	0.022521
0.149854	0.199321	0.024213	0.029243	0.144732	0.114230	0.020326	0.002141	0.011269	0.021875
0.156775	0.195362	0.024581	0.029820	0.136854	0.117260	0.021679	0.002157	0.011145	0.021234
0.163798	0.191557	0.024941	0.030383	0.129212	0.120245	0.023099	0.002195	0.011018	0.020598
0.170912	0.187914	0.025295	0.030929	0.121812	0.123185	0.024588	0.002255	0.010889	0.019968
0.178105	0.184441	0.025645	0.031457	0.114659	0.126082	0.026144	0.002340	0.010759	0.019347
0.185363	0.181140	0.025992	0.031965	0.107756	0.128935	0.027769	0.002450	0.010627	0.018736
0.192673	0.178012	0.026338	0.032452	0.101108	0.131743	0.029460	0.002585	0.010494	0.018135
0.200020	0.175057	0.026684	0.032919	0.094716	0.134505	0.031217	0.002748	0.010360	0.017545
0.207388	0.172270	0.027032	0.033363	0.088583	0.137215	0.033039	0.002938	0.010227	0.016967
0.214759	0.169647	0.027382	0.033784	0.082709	0.139869	0.034924	0.003158	0.010094	0.016402
0.222113	0.167180	0.027736	0.034182	0.077095	0.142460	0.036869	0.003407	0.009961	0.015850
0.229431	0.164859	0.028094	0.034556	0.071743	0.144981	0.038871	0.003689	0.009829	0.015312
0.236687	0.162675	0.028456	0.034904	0.066652	0.147426	0.040928	0.004003	0.009698	0.014787
0.243857	0.160617	0.028825	0.035227	0.061821	0.149792	0.043035	0.004351	0.009569	0.014277
0.250912	0.158675	0.029199	0.035525	0.057250	0.152075	0.045188	0.004735	0.009440	0.013782
0.257821	0.156836	0.029579	0.035798	0.052936	0.154271	0.047383	0.005154	0.009312	0.013301
0.264550	0.155089	0.029965	0.036047	0.048877	0.156374	0.049613	0.005612	0.009186	0.012835
0.271066	0.153423	0.030356	0.036272	0.045070	0.158377	0.051874	0.006108	0.009061	0.012384
0.277340	0.151828	0.030752	0.036474	0.041510	0.160272	0.054160	0.006643	0.008937	0.011949
0.283339	0.150300	0.031153	0.036655	0.038193	0.162048	0.056465	0.007219	0.008814	0.011529
0.289037	0.148832	0.031556	0.036814	0.035115	0.163696	0.058784	0.007836	0.008692	0.011126
0.294404	0.147420	0.031960	0.036953	0.032268	0.165208	0.061112	0.008496	0.008572	0.010739
0.299415	0.146059	0.032363	0.037071	0.029648	0.166580	0.063445	0.009199	0.008452	0.010369
0.304047	0.144744	0.032764	0.037169	0.027248	0.167810	0.065779	0.009945	0.008333	0.010015
0.308286	0.143470	0.033159	0.037246	0.025061	0.168896	0.068109	0.010737	0.008216	0.009678
0.312123	0.142234	0.033546	0.037304	0.023080	0.169839	0.070429	0.011574	0.008101	0.009359
0.315555	0.141031	0.033924	0.037342	0.021298	0.170641	0.072735	0.012457	0.007989	0.009056
0.318580	0.139856	0.034288	0.037363	0.019707	0.171303	0.075021	0.013388	0.007879	0.008771
0.321195	0.138707	0.034638	0.037367	0.018299	0.171829	0.077284	0.014366	0.007773	0.008502
0.323397	0.137580	0.034968	0.037356	0.017066	0.172220	0.079524	0.015392	0.007670	0.008251
0.325178	0.136473	0.035277	0.037331	0.016001	0.172478	0.081739	0.016466	0.007572	0.008016
0.326532	0.135383	0.035559	0.037293	0.015096	0.172604	0.083932	0.017588	0.007479	0.007799
0.327452	0.134309	0.035812	0.037244	0.014341	0.172601	0.086106	0.018758	0.007390	0.007600
0.327934	0.133250	0.036031	0.037184	0.013730	0.172471	0.088266	0.019975	0.007306	0.007417
0.327980	0.132204	0.036214	0.037113	0.013253	0.172216	0.090416	0.021238	0.007228	0.007251
0.327595	0.131173	0.036357	0.037033	0.012904	0.171837	0.092563	0.022546	0.007154	0.007102
0.326793	0.130155	0.036458	0.036942	0.012674	0.171339	0.094712	0.023899	0.007085	0.006969
0.325593	0.129149	0.036518	0.036840	0.012555	0.170723	0.096872	0.025293	0.007021	0.006853
0.324020	0.128151	0.036533	0.036727	0.012541	0.169992	0.099049	0.026729	0.006962	0.006752
0.322098	0.127161	0.036504	0.036605	0.012625	0.169152	0.101250	0.028203	0.006906	0.006667
0.319851	0.126178	0.036430	0.036474	0.012801	0.168215	0.103480	0.029713	0.006855	0.006597
0.317300	0.125202	0.036310	0.036336	0.013063	0.167196	0.105744	0.031256	0.006808	0.006542
0.314467	0.124233	0.036144	0.036192	0.013405	0.166119	0.108049	0.032828	0.006765	0.006500
0.311373	0.123272	0.035930	0.036046	0.013822	0.165007	0.110398	0.034427	0.006725	0.006473
0.308039	0.122319	0.035667	0.035897	0.014310	0.163884	0.112794	0.036049	0.006689	0.006458
0.304483	0.121373	0.035358	0.035747	0.014863	0.162772	0.115239	0.037688	0.006655	0.006456
0.300721	0.120434	0.035001	0.035598	0.015477	0.161690	0.117733	0.039340	0.006624	0.006467
0.296765	0.119500	0.034601	0.035453	0.016147	0.160656	0.120275	0.041000	0.006595	0.006488
0.292624	0.118571	0.034160	0.035313	0.016870	0.159686	0.122865	0.042663	0.006569	0.006521
0.288303	0.117646	0.033680	0.035182	0.017640	0.158795	0.125497	0.044321	0.006544	0.006564
0.283805	0.116726	0.033167	0.035063	0.018453	0.157995	0.128168	0.045969	0.006522	0.006617
0.279135	0.115811	0.032624	0.034956	0.019304	0.157297	0.130875	0.047599	0.006502	0.006680
0.274295	0.114900	0.032055	0.034866	0.020187	0.156712	0.133612	0.049202	0.006485	0.006752
0.269292	0.113993	0.031464	0.034792	0.021098	0.156249	0.136376	0.050770	0.006470	0.006832
0.264135	0.113089	0.030855	0.034736	0.022032	0.155919	0.139163	0.052293	0.006458	0.006920
0.258837	0.112189	0.030229	0.034699	0.022984	0.155732	0.141971	0.053761	0.006449	0.007016
0.253411	0.111289	0.029592	0.034681	0.023948	0.155695	0.144800	0.055161	0.006442	0.007118
0.247873	0.110388	0.028945	0.034680	0.024921	0.155818	0.147652	0.056484	0.006439	0.007228
0.242243	0.109481	0.028291	0.034697	0.025898	0.156107	0.150529	0.057716	0.006438	0.007343
0.236537	0.108563	0.027634	0.034731	0.026875	0.156565	0.153432	0.058846	0.006439	0.007464
0.230775	0.107628	0.026977	0.034783	0.027849	0.157195	0.156361	0.059866	0.006443	0.007591
0.224977	0.106669	0.026323	0.034850	0.028816	0.157999	0.159313	0.060767	0.006450	0.007721
0.219163	0.105678	0.025676	0.034933	0.029773	0.158975	0.162284	0.061543	0.006459	0.007856
0.213350	0.104649	0.025040	0.035032	0.030717	0.160120	0.165268	0.062189	0.006470	0.007993
0.207554	0.103576	0.024418	0.035146	0.031645	0.161428	0.168255	0.062700	0.006483	0.008133
0.201788	0.102455	0.023814	0.035275	0.032553	0.162890	0.171237	0.063073	0.006498	0.008274
0.196061	0.101283	0.023232	0.035418	0.033437	0.164498	0.174204	0.063305	0.006515	0.008414
0.190381	0.100060	0.022675	0.035575	0.034294	0.166238	0.177145	0.063398	0.006535	0.008555
0.184752	0.098784	0.022148	0.035744	0.035117	0.168096	0.180049	0.063354	0.006556	0.008693
0.179177	0.097458	0.021652	0.035922	0.035902	0.170057	0.182900	0.063175	0.006579	0.008831
0.173658	0.096082	0.021192	0.036111	0.036644	0.172103	0.185685	0.062868	0.006604	0.008966
0.168194	0.094659	0.020770	0.036307	0.037337	0.174216	0.188387	0.062434	0.006630	0.009099
0.162789	0.093191	0.020391	0.036510	0.037975	0.176381	0.190989	0.061878	0.006657	0.009230
0.157447	0.091682	0.020055	0.036719	0.038551	0.178581	0.193474	0.061204	0.006684	0.009357
0.152174	0.090136	0.019766	0.036936	0.039061	0.180801	0.195824	0.060417	0.006712	0.009481
0.146974	0.088554	0.019526	0.037159	0.039497	0.183028	0.198030	0.059524	0.006740	0.009601
0.141856	0.086939	0.019336	0.037390	0.039856	0.185245	0.200086	0.058533	0.006767	0.009716
0.136827	0.085293	0.019199	0.037630	0.040136	0.187439	0.201996	0.057451	0.006793	0.009828
0.131894	0.083616	0.019117	0.037879	0.040335	0.189595	0.203765	0.056285	0.006817	0.009934
0.127066	0.081910	0.019090	0.038137	0.040455	0.191699	0.205401	0.055046	0.006837	0.010035
0.122351	0.080178	0.019120	0.038403	0.040498	0.193737	0.206912	0.053741	0.006854	0.010131
0.117754	0.078424	0.019207	0.038677	0.040468	0.195693	0.208309	0.052379	0.006867	0.010221
0.113284	0.076653	0.019351	0.038958	0.040367	0.197556	0.209607	0.050970	0.006875	0.010304
0.108945	0.074870	0.019554	0.039247	0.040202	0.199319	0.210820	0.049520	0.006877	0.010381
0.104742	0.073083	0.019816	0.039542	0.039978	0.200982	0.211967	0.048038	0.006873	0.010453
0.100681	0.071298	0.020135	0.039846	0.039700	0.202555	0.213069	0.046531	0.006863	0.010517
0.096762	0.069520	0.020512	0.040157	0.039376	0.204049	0.214148	0.045005	0.006847	0.010575
0.092988	0.067756	0.020947	0.040477	0.039012	0.205477	0.215224	0.043468	0.006824	0.010627
0.089358	0.066010	0.021439	0.040808	0.038615	0.206850	0.216316	0.041925	0.006793	0.010672
0.085873	0.064289	0.021987	0.041150	0.038193	0.208179	0.217441	0.040381	0.006756	0.010710
0.082529	0.062597	0.022591	0.041505	0.037751	0.209474	0.218613	0.038843	0.006712	0.010742
0.079323	0.060940	0.023249	0.041876	0.037299	0.210745	0.219843	0.037316	0.006661	0.010767
0.076252	0.059323	0.023961	0.042263	0.036844	0.212001	0.221141	0.035805	0.006603	0.010787
0.073310	0.057750	0.024725	0.042670	0.036393	0.213252	0.222511	0.034316	0.006538	0.010801
0.070493	0.056224	0.025540	0.043096	0.035953	0.214509	0.223958	0.032854	0.006467	0.010809
0.067794	0.054750	0.026406	0.043543	0.035531	0.215785	0.225484	0.031424	0.006388	0.010812
0.065207	0.053330	0.027321	0.044011	0.035133	0.217090	0.227086	0.030029	0.006304	0.010811
0.062727	0.051968	0.028284	0.044501	0.034765	0.218434	0.228760	0.028674	0.006212	0.010805
0.060350	0.050664	0.029294	0.045012	0.034433	0.219825	0.230496	0.027362	0.006113	0.010795
0.058077	0.049423	0.030349	0.045544	0.034143	0.221267	0.232286	0.026095	0.006008	0.010782
0.055908	0.048243	0.031448	0.046097	0.033899	0.222765	0.234117	0.024877	0.005895	0.010766
0.053847	0.047128	0.032588	0.046669	0.033707	0.224321	0.235977	0.023710	0.005776	0.010749
0.051897	0.046076	0.033766	0.047261	0.033571	0.225937	0.237854	0.022596	0.005650	0.010730
0.050061	0.045088	0.034981	0.047870	0.033496	0.227616	0.239740	0.021536	0.005517	0.010711
0.048345	0.044165	0.036227	0.048497	0.033486	0.229358	0.241626	0.020532	0.005379	0.010691
0.046750	0.043304	0.037502	0.049140	0.033545	0.231163	0.243510	0.019586	0.005235	0.010673
0.045280	0.042506	0.038800	0.049797	0.033677	0.233031	0.245390	0.018699	0.005086	0.010655
0.043938	0.041770	0.040117	0.050469	0.033885	0.234959	0.247264	0.017872	0.004932	0.010639
0.042724	0.041095	0.041447	0.051155	0.034173	0.236945	0.249133	0.017106	0.004774	0.010625
0.041640	0.040480	0.042785	0.051854	0.034544	0.238983	0.250997	0.016402	0.004612	0.010613
0.040687	0.039925	0.044122	0.052566	0.034999	0.241066	0.252859	0.015760	0.004446	0.010604
0.039865	0.039428	0.045454	0.053290	0.035542	0.243188	0.254727	0.015182	0.004277	0.010599
0.039175	0.038987	0.046771	0.054024	0.036174	0.245342	0.256610	0.014666	0.004105	0.010598
0.038617	0.038602	0.048068	0.054766	0.036897	0.247524	0.258519	0.014215	0.003930	0.010602
0.038194	0.038269	0.049335	0.055513	0.037712	0.249730	0.260462	0.013827	0.003753	0.010611
0.037907	0.037987	0.050564	0.056261	0.038619	0.251960	0.262445	0.013503	0.003575	0.010625
0.037758	0.037752	0.051748	0.057007	0.039619	0.254211	0.264471	0.013244	0.003397	0.010646
0.037750	0.037563	0.052880	0.057745	0.040712	0.256482	0.266541	0.013048	0.003221	0.010672
0.037886	0.037415	0.053951	0.058470	0.041897	0.258769	0.268652	0.012916	0.003048	0.010705
0.038167	0.037308	0.054956	0.059177	0.043173	0.261065	0.270798	0.012849	0.002879	0.010745
0.038597	0.037238	0.055891	0.059858	0.044540	0.263361	0.272972	0.012844	0.002715	0.010792
0.039175	0.037203	0.056749	0.060508	0.045996	0.265644	0.275167	0.012902	0.002560	0.010845
0.039904	0.037201	0.057529	0.061120	0.047539	0.267901	0.277372	0.013022	0.002414	0.010907
0.040783	0.037231	0.058225	0.061686	0.049168	0.270115	0.279575	0.013203	0.002279	0.010975
0.041814	0.037290	0.058834	0.062198	0.050883	0.272272	0.281764	0.013445	0.002158	0.011050
0.042997	0.037377	0.059353	0.062652	0.052681	0.274354	0.283924	0.013745	0.002054	0.011133
0.044333	0.037490	0.059777	0.063040	0.054560	0.276343	0.286043	0.014102	0.001967	0.011223
0.045825	0.037630	0.060103	0.063357	0.056517	0.278222	0.288109	0.014517	0.001902	0.011319
0.047473	0.037794	0.060332	0.063601	0.058550	0.279975	0.290109	0.014987	0.001860	0.011422
0.049279	0.037982	0.060463	0.063770	0.060654	0.281588	0.292033	0.015512	0.001844	0.011532
0.051248	0.038194	0.060498	0.063862	0.062826	0.283048	0.293874	0.016092	0.001858	0.011647
0.053382	0.038429	0.060441	0.063878	0.065061	0.284344	0.295632	0.016725	0.001903	0.011768
0.055683	0.038689	0.060297	0.063821	0.067353	0.285466	0.297310	0.017410	0.001984	0.011895
0.058156	0.038971	0.060071	0.063692	0.069694	0.286414	0.298915	0.018146	0.002102	0.012026
0.060804	0.039278	0.059770	0.063493	0.072077	0.287191	0.300453	0.018932	0.002262	0.012161
0.063628	0.039608	0.059400	0.063226	0.074495	0.287805	0.301930	0.019766	0.002467	0.012300
0.066631	0.039962	0.058966	0.062891	0.076937	0.288266	0.303347	0.020648	0.002721	0.012441
0.069814	0.040340	0.058471	0.062491	0.079394	0.288581	0.304703	0.021575	0.003027	0.012584
0.073177	0.040743	0.057921	0.062027	0.081859	0.288761	0.305997	0.022545	0.003391	0.012728
0.076721	0.041171	0.057320	0.061502	0.084322	0.288817	0.307227	0.023556	0.003815	0.012872
0.080444	0.041624	0.056671	0.060920	0.086776	0.288762	0.308394	0.024607	0.004304	0.013015
0.084344	0.042102	0.055979	0.060286	0.089211	0.288613	0.309505	0.025694	0.004862	0.013158
0.088419	0.042606	0.055249	0.059604	0.091619	0.288386	0.310574	0.026814	0.005494	0.013300
0.092666	0.043134	0.054485	0.058881	0.093991	0.288100	0.311618	0.027966	0.006204	0.013439
0.097079	0.043686	0.053694	0.058123	0.096316	0.287770	0.312658	0.029146	0.006997	0.013577
0.101652	0.044263	0.052882	0.057337	0.098582	0.287411	0.313715	0.030352	0.007878	0.013713
0.106379	0.044863	0.052054	0.056530	0.100777	0.287040	0.314811	0.031581	0.008852	0.013848
0.111251	0.045487	0.051217	0.055709	0.102887	0.286676	0.315970	0.032833	0.009925	0.013981
0.116260	0.046134	0.050377	0.054881	0.104897	0.286344	0.317218	0.034103	0.011103	0.014114
0.121397	0.046804	0.049539	0.054053	0.106794	0.286069	0.318575	0.035391	0.012393	0.014247
0.126654	0.047500	0.048709	0.053229	0.108566	0.285877	0.320062	0.036692	0.013799	0.014379
0.132022	0.048222	0.047893	0.052415	0.110202	0.285791	0.321694	0.038003	0.015329	0.014513
0.137493	0.048973	0.047094	0.051615	0.111695	0.285832	0.323487	0.039323	0.016988	0.014647
0.143060	0.049755	0.046317	0.050833	0.113038	0.286015	0.325451	0.040648	0.018782	0.014781
0.148715	0.050569	0.045565	0.050071	0.114227	0.286353	0.327595	0.041978	0.020717	0.014917
0.154451	0.051416	0.044840	0.049331	0.115258	0.286857	0.329927	0.043313	0.022797	0.015055
0.160259	0.052298	0.044145	0.048614	0.116129	0.287533	0.332451	0.044655	0.025030	0.015194
0.166133	0.053212	0.043482	0.047922	0.116842	0.288381	0.335172	0.046004	0.027419	0.015335
0.172064	0.054160	0.042852	0.047255	0.117402	0.289401	0.338092	0.047365	0.029971	0.015479
0.178041	0.055138	0.042257	0.046612	0.117819	0.290586	0.341214	0.048741	0.032691	0.015626
0.184054	0.056145	0.041699	0.045993	0.118112	0.291927	0.344544	0.050137	0.035584	0.015777
0.190089	0.057177	0.041178	0.045398	0.118302	0.293409	0.348083	0.051558	0.038654	0.015934
0.196132	0.058230	0.040696	0.044824	0.118413	0.295016	0.351834	0.053011	0.041907	0.016097
0.202167	0.059300	0.040255	0.044269	0.118470	0.296727	0.355795	0.054503	0.045346	0.016269
0.208175	0.060380	0.039855	0.043732	0.118495	0.298522	0.359966	0.056040	0.048976	0.016450
0.214134	0.061465	0.039499	0.043210	0.118511	0.300379	0.364343	0.057631	0.052801	0.016644
0.220022	0.062548	0.039187	0.042702	0.118540	0.302275	0.368924	0.059281	0.056823	0.016850
0.225813	0.063622	0.038922	0.042206	0.118599	0.304183	0.373706	0.061000	0.061046	0.017071
0.231484	0.064680	0.038703	0.041724	0.118709	0.306083	0.378685	0.062794	0.065472	0.017309
0.237011	0.065714	0.038532	0.041255	0.118885	0.307958	0.383859	0.064671	0.070102	0.017563
0.242374	0.066716	0.038409	0.040801	0.119144	0.309800	0.389227	0.066637	0.074937	0.017837
0.247551	0.067675	0.038332	0.040364	0.119501	0.311609	0.394786	0.068698	0.079977	0.018130
0.252528	0.068585	0.038301	0.039946	0.119971	0.313384	0.400533	0.070858	0.085221	0.018445
0.257288	0.069436	0.038315	0.039549	0.120568	0.315129	0.406462	0.073121	0.090665	0.018782
0.261820	0.070221	0.038371	0.039174	0.121305	0.316846	0.412566	0.075491	0.096307	0.019143
0.266115	0.070936	0.038469	0.038824	0.122193	0.318537	0.418839	0.077969	0.102141	0.019527
0.270166	0.071575	0.038605	0.038498	0.123244	0.320207	0.425269	0.080557	0.108161	0.019937
0.273965	0.072135	0.038780	0.038198	0.124468	0.321859	0.431841	0.083255	0.114358	0.020373
0.277508	0.072615	0.038990	0.037924	0.125874	0.323502	0.438539	0.086063	0.120724	0.020834
0.280786	0.073012	0.039235	0.037676	0.127469	0.325146	0.445341	0.088980	0.127247	0.021323
0.283793	0.073325	0.039514	0.037455	0.129259	0.326802	0.452229	0.092005	0.133917	0.021837
0.286527	0.073553	0.039825	0.037262	0.131248	0.328477	0.459189	0.095135	0.140721	0.022379
0.288989	0.073693	0.040166	0.037097	0.133438	0.330183	0.466206	0.098368	0.147643	0.022947
0.291179	0.073743	0.040536	0.036961	0.135830	0.331931	0.473269	0.101700	0.154667	0.023542
0.293101	0.073702	0.040931	0.036854	0.138422	0.333738	0.480363	0.105127	0.161776	0.024164
0.294757	0.073568	0.041349	0.036778	0.141213	0.335626	0.487471	0.108643	0.168951	0.024813
0.296153	0.073343	0.041788	0.036733	0.144201	0.337621	0.494570	0.112241	0.176172	0.025489
0.297299	0.073029	0.042242	0.036719	0.147382	0.339752	0.501637	0.115915	0.183418	0.026192
0.298207	0.072630	0.042711	0.036736	0.150751	0.342044	0.508644	0.119656	0.190665	0.026922
0.298887	0.072152	0.043190	0.036784	0.154305	0.344521	0.515567	0.123456	0.197892	0.027677
0.299348	0.071600	0.043677	0.036862	0.158035	0.347201	0.522379	0.127305	0.205075	0.028458
0.299598	0.070984	0.044167	0.036970	0.161933	0.350100	0.529055	0.131192	0.212191	0.029261
0.299642	0.070311	0.044659	0.037106	0.165989	0.353230	0.535573	0.135108	0.219219	0.030086
0.299487	0.069589	0.045150	0.037270	0.170195	0.356598	0.541910	0.139039	0.226134	0.030930
0.299142	0.068827	0.045639	0.037460	0.174540	0.360210	0.548049	0.142975	0.232917	0.031792
0.298615	0.068031	0.046127	0.037675	0.179013	0.364068	0.553974	0.146901	0.239546	0.032669
0.297917	0.067211	0.046615	0.037912	0.183602	0.368169	0.559674	0.150808	0.245999	0.033558
0.297057	0.066371	0.047104	0.038170	0.188296	0.372506	0.565140	0.154682	0.252253	0.034456
0.296045	0.065520	0.047595	0.038449	0.193083	0.377070	0.570361	0.158515	0.258285	0.035362
0.294893	0.064663	0.048091	0.038747	0.197953	0.381851	0.575327	0.162293	0.264069	0.036273
0.293609	0.063805	0.048592	0.039065	0.202893	0.386835	0.580023	0.166004	0.269582	0.037188
0.292199	0.062950	0.049099	0.039400	0.207893	0.392009	0.584434	0.169634	0.274799	0.038106
0.290668	0.062102	0.049611	0.039753	0.212944	0.397359	0.588549	0.173167	0.279698	0.039026
0.289022	0.061266	0.050126	0.040123	0.218039	0.402868	0.592360	0.176586	0.284257	0.039946
0.287265	0.060447	0.050645	0.040510	0.223166	0.408522	0.595865	0.179876	0.288452	0.040863
0.285407	0.059647	0.051164	0.040912	0.228317	0.414315	0.599063	0.183022	0.292259	0.041776
0.283457	0.058873	0.051680	0.041330	0.233478	0.420240	0.601958	0.186014	0.295648	0.042683
0.281425	0.058129	0.052191	0.041761	0.238639	0.426293	0.604549	0.188842	0.298592	0.043581
0.279321	0.057419	0.052691	0.042207	0.243787	0.432465	0.606832	0.191500	0.301062	0.044469
0.277151	0.056748	0.053176	0.042666	0.248911	0.438744	0.608796	0.193982	0.303040	0.045345
0.274925	0.056119	0.053641	0.043137	0.253999	0.445113	0.610430	0.196280	0.304521	0.046207
0.272650	0.055536	0.054080	0.043620	0.259044	0.451553	0.611724	0.198393	0.305512	0.047052
0.270333	0.055000	0.054488	0.044113	0.264036	0.458043	0.612669	0.200320	0.306032	0.047876
0.267977	0.054513	0.054857	0.044614	0.268971	0.464559	0.613263	0.202063	0.306104	0.048679
0.265585	0.054075	0.055184	0.045119	0.273846	0.471074	0.613501	0.203628	0.305749	0.049456
0.263158	0.053687	0.055463	0.045628	0.278658	0.477563	0.613376	0.205018	0.304990	0.050206
0.260692	0.053348	0.055689	0.046136	0.283400	0.483999	0.612888	0.206238	0.303848	0.050927
0.258182	0.053055	0.055860	0.046640	0.288066	0.490356	0.612041	0.207290	0.302352	0.051616
0.255618	0.052809	0.055972	0.047139	0.292646	0.496612	0.610855	0.208175	0.300533	0.052271
0.252990	0.052606	0.056026	0.047627	0.297125	0.502748	0.609361	0.208890	0.298427	0.052888
0.250290	0.052445	0.056020	0.048103	0.301487	0.508740	0.607596	0.209430	0.296073	0.053465
0.247508	0.052324	0.055955	0.048565	0.305713	0.514571	0.605600	0.209789	0.293509	0.054000
0.244640	0.052239	0.055832	0.049011	0.309781	0.520230	0.603407	0.209958	0.290772	0.054489
0.241683	0.052186	0.055652	0.049440	0.313666	0.525710	0.601047	0.209930	0.287900	0.054933
0.238635	0.052164	0.055414	0.049854	0.317348	0.531006	0.598547	0.209699	0.284926	0.055331
0.235500	0.052168	0.055120	0.050255	0.320809	0.536110	0.595933	0.209264	0.281884	0.055684
0.232281	0.052197	0.054770	0.050643	0.324034	0.541008	0.593230	0.208629	0.278806	0.055991
0.228985	0.052249	0.054367	0.051020	0.327013	0.545683	0.590464	0.207801	0.275722	0.056255
0.225620	0.052322	0.053914	0.051387	0.329739	0.550111	0.587661	0.206789	0.272659	0.056477
0.222193	0.052416	0.053415	0.051742	0.332202	0.554264	0.584841	0.205602	0.269642	0.056658
0.218712	0.052528	0.052874	0.052085	0.334399	0.558112	0.582019	0.204250	0.266689	0.056799
0.215182	0.052657	0.052298	0.052416	0.336337	0.561627	0.579201	0.202739	0.263819	0.056899
0.211608	0.052800	0.051693	0.052731	0.338033	0.564785	0.576389	0.201080	0.261044	0.056959
0.207996	0.052956	0.051065	0.053030	0.339517	0.567569	0.573577	0.199284	0.258374	0.056976
0.204352	0.053123	0.050422	0.053311	0.340822	0.569965	0.570756	0.197364	0.255817	0.056950
0.200686	0.053298	0.049770	0.053573	0.341981	0.571958	0.567908	0.195339	0.253374	0.056880
0.197007	0.053480	0.049117	0.053817	0.343032	0.573537	0.565011	0.193227	0.251048	0.056763
0.193323	0.053664	0.048469	0.054044	0.344011	0.574701	0.562036	0.191052	0.248833	0.056599
0.189641	0.053848	0.047833	0.054257	0.344954	0.575454	0.558951	0.188836	0.246727	0.056387
0.185967	0.054030	0.047212	0.054460	0.345891	0.575804	0.555724	0.186599	0.244723	0.056128
0.182307	0.054208	0.046614	0.054657	0.346852	0.575752	0.552329	0.184361	0.242814	0.055823
0.178664	0.054381	0.046041	0.054854	0.347860	0.575296	0.548742	0.182140	0.240995	0.055473
0.175041	0.054546	0.045497	0.055053	0.348938	0.574428	0.544947	0.179948	0.239257	0.055082
0.171439	0.054704	0.044986	0.055262	0.350103	0.573139	0.540932	0.177798	0.237593	0.054650
0.167860	0.054854	0.044510	0.055484	0.351368	0.571415	0.536683	0.175698	0.235994	0.054182
0.164303	0.054996	0.044070	0.055724	0.352743	0.569241	0.532189	0.173655	0.234450	0.053680
0.160773	0.055131	0.043669	0.055988	0.354237	0.566601	0.527444	0.171672	0.232958	0.053146
0.157275	0.055260	0.043307	0.056279	0.355855	0.563483	0.522457	0.169751	0.231519	0.052582
0.153817	0.055388	0.042986	0.056606	0.357599	0.559892	0.517248	0.167895	0.230135	0.051990
0.150409	0.055516	0.042710	0.056972	0.359468	0.555846	0.511849	0.166103	0.228810	0.051370
0.147062	0.055648	0.042479	0.057384	0.361458	0.551374	0.506298	0.164378	0.227549	0.050724
0.143790	0.055789	0.042300	0.057845	0.363567	0.546507	0.500633	0.162724	0.226359	0.050054
0.140603	0.055942	0.042175	0.058360	0.365795	0.541275	0.494893	0.161149	0.225250	0.049361
0.137514	0.056110	0.042111	0.058930	0.368145	0.535708	0.489111	0.159661	0.224233	0.048651
0.134530	0.056298	0.042113	0.059559	0.370620	0.529833	0.483317	0.158269	0.223319	0.047926
0.131662	0.056510	0.042189	0.060249	0.373222	0.523681	0.477536	0.156981	0.222519	0.047192
0.128919	0.056753	0.042344	0.060999	0.375954	0.517286	0.471787	0.155803	0.221844	0.046455
0.126310	0.057033	0.042585	0.061811	0.378813	0.510682	0.466086	0.154740	0.221302	0.045719
0.123845	0.057355	0.042917	0.062686	0.381793	0.503910	0.460444	0.153797	0.220903	0.044988
0.121537	0.057727	0.043346	0.063624	0.384886	0.497013	0.454869	0.152975	0.220654	0.044267
0.119397	0.058152	0.043877	0.064623	0.388078	0.490034	0.449365	0.152281	0.220563	0.043560
0.117437	0.058635	0.044517	0.065685	0.391357	0.483014	0.443937	0.151719	0.220636	0.042870
0.115670	0.059180	0.045272	0.066807	0.394710	0.475995	0.438593	0.151295	0.220879	0.042200
0.114105	0.059790	0.046145	0.067988	0.398126	0.469009	0.433347	0.151015	0.221297	0.041553
0.112754	0.060466	0.047144	0.069223	0.401594	0.462088	0.428214	0.150887	0.221891	0.040930
0.111626	0.061211	0.048273	0.070512	0.405099	0.455257	0.423215	0.150917	0.222664	0.040334
0.110729	0.062024	0.049537	0.071848	0.408622	0.448539	0.418368	0.151110	0.223618	0.039766
0.110070	0.062906	0.050940	0.073228	0.412141	0.441954	0.413691	0.151471	0.224753	0.039227
0.109654	0.063855	0.052486	0.074648	0.415633	0.435516	0.409194	0.152001	0.226067	0.038717
0.109487	0.064871	0.054179	0.076102	0.419078	0.429237	0.404884	0.152699	0.227557	0.038236
0.109574	0.065950	0.056019	0.077585	0.422459	0.423120	0.400763	0.153563	0.229218	0.037786
0.109916	0.067090	0.058010	0.079092	0.425760	0.417166	0.396827	0.154587	0.231049	0.037364
0.110516	0.068288	0.060151	0.080617	0.428965	0.411371	0.393067	0.155763	0.233050	0.036971
0.111378	0.069543	0.062443	0.082153	0.432053	0.405727	0.389471	0.157081	0.235220	0.036605
0.112503	0.070851	0.064884	0.083693	0.435000	0.400221	0.386028	0.158530	0.237559	0.036264
0.113892	0.072213	0.067473	0.085230	0.437780	0.394836	0.382726	0.160096	0.240065	0.035948
0.115546	0.073627	0.070208	0.086757	0.440358	0.389556	0.379559	0.161763	0.242734	0.035653
0.117464	0.075091	0.073085	0.088264	0.442701	0.384363	0.376526	0.163517	0.245563	0.035377
0.119644	0.076604	0.076099	0.089744	0.444773	0.379244	0.373628	0.165347	0.248545	0.035116
0.122083	0.078165	0.079248	0.091187	0.446546	0.374191	0.370870	0.167242	0.251670	0.034868
0.124774	0.079769	0.082524	0.092588	0.447999	0.369206	0.368258	0.169194	0.254930	0.034628
0.127711	0.081416	0.085921	0.093939	0.449115	0.364293	0.365793	0.171197	0.258313	0.034394
0.130884	0.083104	0.089433	0.095232	0.449881	0.359462	0.363472	0.173241	0.261809	0.034162
0.134284	0.084833	0.093052	0.096461	0.450278	0.354721	0.361292	0.175318	0.265404	0.033932
0.137898	0.086601	0.096767	0.097621	0.450288	0.350077	0.359244	0.177416	0.269086	0.033703
0.141713	0.088410	0.100568	0.098710	0.449887	0.345535	0.357318	0.179524	0.272837	0.033474
0.145716	0.090259	0.104445	0.099728	0.449052	0.341101	0.355505	0.181628	0.276639	0.033246
0.149894	0.092147	0.108383	0.100679	0.447763	0.336777	0.353791	0.183711	0.280470	0.033018
0.154234	0.094073	0.112371	0.101567	0.446005	0.332566	0.352161	0.185757	0.284306	0.032791
0.158724	0.096037	0.116394	0.102397	0.443767	0.328468	0.350602	0.187746	0.288129	0.032565
0.163351	0.098038	0.120439	0.103175	0.441047	0.324484	0.349100	0.189659	0.291920	0.032341
0.168106	0.100074	0.124492	0.103905	0.437851	0.320610	0.347641	0.191474	0.295665	0.032121
0.172975	0.102143	0.128538	0.104592	0.434196	0.316840	0.346217	0.193172	0.299354	0.031905
0.177948	0.104240	0.132561	0.105238	0.430101	0.313168	0.344825	0.194729	0.302977	0.031697
0.183010	0.106363	0.136549	0.105845	0.425589	0.309587	0.343472	0.196126	0.306525	0.031496
0.188146	0.108505	0.140487	0.106415	0.420682	0.306092	0.342168	0.197344	0.309987	0.031306
0.193340	0.110664	0.144365	0.106948	0.415404	0.302677	0.340928	0.198365	0.313353	0.031126
0.198572	0.112836	0.148169	0.107445	0.409778	0.299342	0.339764	0.199171	0.316615	0.030957
0.203821	0.115018	0.151888	0.107902	0.403825	0.296085	0.338688	0.199747	0.319768	0.030802
0.209064	0.117208	0.155508	0.108316	0.397563	0.292909	0.337709	0.200075	0.322814	0.030659
0.214277	0.119406	0.159014	0.108685	0.391016	0.289814	0.336835	0.200144	0.325758	0.030530
0.219437	0.121607	0.162394	0.109006	0.384213	0.286805	0.336078	0.199949	0.328607	0.030416
0.224518	0.123812	0.165634	0.109280	0.377196	0.283885	0.335445	0.199490	0.331364	0.030316
0.229498	0.126017	0.168726	0.109512	0.370012	0.281058	0.334944	0.198771	0.334036	0.030232
0.234353	0.128221	0.171662	0.109707	0.362710	0.278326	0.334577	0.197798	0.336625	0.030164
0.239057	0.130420	0.174439	0.109876	0.355336	0.275688	0.334343	0.196575	0.339140	0.030113
0.243584	0.132612	0.177054	0.110027	0.347932	0.273138	0.334238	0.195109	0.341585	0.030080
0.247910	0.134792	0.179508	0.110169	0.340534	0.270668	0.334256	0.193411	0.343967	0.030065
0.252015	0.136956	0.181802	0.110311	0.333176	0.268267	0.334386	0.191494	0.346288	0.030068
0.255884	0.139098	0.183936	0.110462	0.325885	0.265925	0.334619	0.189377	0.348549	0.030089
0.259510	0.141210	0.185910	0.110632	0.318689	0.263635	0.334950	0.187079	0.350751	0.030130
0.262893	0.143284	0.187723	0.110830	0.311618	0.261401	0.335377	0.184620	0.352887	0.030191
0.266037	0.145311	0.189378	0.111066	0.304704	0.259232	0.335899	0.182021	0.354948	0.030273
0.268951	0.147282	0.190879	0.111348	0.297980	0.257146	0.336516	0.179301	0.356917	0.030377
0.271648	0.149188	0.192230	0.111684	0.291479	0.255160	0.337226	0.176479	0.358776	0.030505
0.274143	0.151021	0.193434	0.112079	0.285235	0.253292	0.338021	0.173574	0.360499	0.030659
0.276451	0.152773	0.194493	0.112539	0.279275	0.251556	0.338893	0.170603	0.362059	0.030841
0.278584	0.154436	0.195411	0.113067	0.273624	0.249967	0.339831	0.167580	0.363426	0.031055
0.280554	0.156005	0.196191	0.113665	0.268303	0.248532	0.340820	0.164522	0.364575	0.031302
0.282370	0.157475	0.196838	0.114334	0.263329	0.247260	0.341846	0.161441	0.365480	0.031588
0.284041	0.158845	0.197359	0.115072	0.258718	0.246156	0.342887	0.158351	0.366122	0.031914
0.285575	0.160116	0.197756	0.115880	0.254483	0.245221	0.343921	0.155264	0.366483	0.032283
0.286979	0.161291	0.198036	0.116754	0.250632	0.244456	0.344924	0.152192	0.366546	0.032699
0.288261	0.162373	0.198200	0.117691	0.247176	0.243858	0.345867	0.149142	0.366303	0.033164
0.289427	0.163367	0.198253	0.118688	0.244119	0.243423	0.346721	0.146124	0.365752	0.033679
0.290484	0.164277	0.198202	0.119737	0.241466	0.243145	0.347460	0.143143	0.364905	0.034246
0.291434	0.165106	0.198059	0.120832	0.239218	0.243016	0.348061	0.140207	0.363776	0.034867
0.292281	0.165858	0.197836	0.121968	0.237376	0.243025	0.348505	0.137324	0.362382	0.035544
0.293026	0.166537	0.197551	0.123135	0.235942	0.243160	0.348781	0.134505	0.360736	0.036277
0.293670	0.167149	0.197222	0.124325	0.234914	0.243406	0.348884	0.131759	0.358848	0.037070
0.294213	0.167700	0.196866	0.125527	0.234291	0.243747	0.348806	0.129096	0.356730	0.037923
0.294651	0.168196	0.196502	0.126732	0.234068	0.244165	0.348543	0.126526	0.354389	0.038838
0.294980	0.168645	0.196146	0.127930	0.234238	0.244638	0.348089	0.124055	0.351832	0.039818
0.295188	0.169053	0.195811	0.129116	0.234792	0.245143	0.347447	0.121689	0.349061	0.040862
0.295265	0.169427	0.195509	0.130285	0.235715	0.245657	0.346621	0.119433	0.346076	0.041972
0.295195	0.169772	0.195251	0.131437	0.236991	0.246151	0.345622	0.117293	0.342877	0.043151
0.294960	0.170094	0.195045	0.132570	0.238599	0.246597	0.344464	0.115271	0.339465	0.044401
0.294544	0.170398	0.194901	0.133684	0.240518	0.246964	0.343161	0.113371	0.335842	0.045723
0.293933	0.170692	0.194827	0.134780	0.242719	0.247217	0.341727	0.111595	0.332009	0.047121
0.293119	0.170981	0.194833	0.135861	0.245175	0.247324	0.340175	0.109948	0.327968	0.048600
0.292096	0.171275	0.194927	0.136934	0.247856	0.247256	0.338510	0.108432	0.323721	0.050164
0.290864	0.171584	0.195119	0.138005	0.250730	0.246992	0.336737	0.107053	0.319271	0.051817
0.289424	0.171917	0.195417	0.139084	0.253768	0.246525	0.334854	0.105817	0.314623	0.053564
0.287777	0.172288	0.195832	0.140177	0.256940	0.245855	0.332858	0.104728	0.309783	0.055409
0.285923	0.172707	0.196370	0.141292	0.260223	0.244985	0.330743	0.103794	0.304756	0.057355
0.283859	0.173184	0.197040	0.142433	0.263593	0.243921	0.328504	0.103018	0.299553	0.059406
0.281584	0.173728	0.197844	0.143606	0.267028	0.242676	0.326135	0.102408	0.294182	0.061567
0.279097	0.174345	0.198786	0.144817	0.270507	0.241266	0.323629	0.101969	0.288655	0.063840
0.276399	0.175043	0.199865	0.146072	0.274005	0.239711	0.320981	0.101710	0.282986	0.066230
0.273493	0.175826	0.201080	0.147379	0.277498	0.238030	0.318184	0.101642	0.277189	0.068740
0.270384	0.176703	0.202427	0.148747	0.280959	0.236240	0.315232	0.101777	0.271281	0.071373
0.267079	0.177677	0.203901	0.150183	0.284362	0.234355	0.312119	0.102129	0.265285	0.074131
0.263589	0.178753	0.205496	0.151695	0.287673	0.232386	0.308841	0.102708	0.259229	0.077012
0.259928	0.179934	0.207204	0.153290	0.290860	0.230342	0.305391	0.103530	0.253144	0.080018
0.256111	0.181220	0.209020	0.154981	0.293888	0.228225	0.301760	0.104606	0.247057	0.083148
0.252156	0.182609	0.210940	0.156779	0.296721	0.226039	0.297941	0.105952	0.240997	0.086400
0.248079	0.184098	0.212961	0.158701	0.299329	0.223782	0.293928	0.107581	0.234986	0.089774
0.243900	0.185683	0.215083	0.160765	0.301684	0.221453	0.289719	0.109506	0.229044	0.093271
0.239633	0.187357	0.217305	0.162985	0.303767	0.219046	0.285321	0.111739	0.223193	0.096891
0.235297	0.189114	0.219626	0.165377	0.305561	0.216558	0.280746	0.114294	0.217449	0.100631
0.230907	0.190949	0.222042	0.167953	0.307053	0.213981	0.276014	0.117183	0.211828	0.104489
0.226474	0.192856	0.224552	0.170722	0.308228	0.211310	0.271145	0.120416	0.206347	0.108464
0.222013	0.194830	0.227155	0.173694	0.309069	0.208538	0.266163	0.124003	0.201016	0.112550
0.217534	0.196869	0.229856	0.176874	0.309556	0.205656	0.261086	0.127953	0.195847	0.116744
0.213046	0.198970	0.232662	0.180268	0.309667	0.202655	0.255933	0.132273	0.190845	0.121039
0.208555	0.201133	0.235584	0.183879	0.309383	0.199530	0.250722	0.136966	0.186015	0.125428
0.204065	0.203360	0.238633	0.187711	0.308696	0.196278	0.245471	0.142037	0.181361	0.129903
0.199580	0.205654	0.241822	0.191767	0.307608	0.192906	0.240200	0.147485	0.176882	0.134456
0.195104	0.208020	0.245162	0.196049	0.306131	0.189425	0.234927	0.153311	0.172580	0.139079
0.190639	0.210461	0.248663	0.200556	0.304280	0.185849	0.229670	0.159511	0.168453	0.143763
0.186188	0.212981	0.252332	0.205286	0.302072	0.182192	0.224442	0.166082	0.164496	0.148498
0.181753	0.215582	0.256174	0.210235	0.299518	0.178468	0.219256	0.173018	0.160705	0.153275
0.177335	0.218263	0.260191	0.215394	0.296628	0.174687	0.214120	0.180312	0.157075	0.158085
0.172935	0.221020	0.264386	0.220755	0.293409	0.170862	0.209041	0.187957	0.153601	0.162917
0.168553	0.223849	0.268758	0.226304	0.289869	0.167004	0.204024	0.195941	0.150277	0.167762
0.164191	0.226742	0.273303	0.232026	0.286015	0.163125	0.199073	0.204253	0.147099	0.172608
0.159852	0.229694	0.278015	0.237908	0.281864	0.159234	0.194195	0.212879	0.144065	0.177444
0.155538	0.232695	0.282883	0.243933	0.277442	0.155341	0.189398	0.221803	0.141171	0.182256
0.151254	0.235741	0.287899	0.250088	0.272777	0.151452	0.184689	0.231006	0.138420	0.187030
0.147005	0.238825	0.293050	0.256358	0.267903	0.147574	0.180079	0.240467	0.135821	0.191753
0.142800	0.241943	0.298325	0.262727	0.262853	0.143714	0.175577	0.250164	0.133384	0.196415
0.138645	0.245092	0.303712	0.269172	0.257659	0.139882	0.171190	0.260072	0.131124	0.201015
0.134548	0.248273	0.309199	0.275671	0.252354	0.136087	0.166927	0.270163	0.129055	0.205554
0.130516	0.251486	0.314770	0.282199	0.246970	0.132339	0.162791	0.280406	0.127187	0.210034
0.126556	0.254737	0.320407	0.288728	0.241535	0.128647	0.158784	0.290771	0.125533	0.214461
0.122674	0.258031	0.326087	0.295230	0.236074	0.125017	0.154908	0.301221	0.124103	0.218838
0.118875	0.261377	0.331785	0.301679	0.230611	0.121459	0.151162	0.311720	0.122905	0.223169
0.115162	0.264785	0.337472	0.308051	0.225165	0.117976	0.147542	0.322226	0.121949	0.227460
0.111536	0.268264	0.343115	0.314330	0.219752	0.114575	0.144044	0.332696	0.121240	0.231725
0.107997	0.271821	0.348683	0.320505	0.214386	0.111259	0.140661	0.343086	0.120784	0.235981
0.104544	0.275461	0.354143	0.326571	0.209076	0.108029	0.137387	0.353351	0.120585	0.240246
0.101175	0.279186	0.359463	0.332527	0.203829	0.104886	0.134213	0.363451	0.120649	0.244543
0.097886	0.282998	0.364613	0.338374	0.198650	0.101829	0.131132	0.373348	0.120977	0.248888
0.094672	0.286896	0.369566	0.344113	0.193540	0.098857	0.128133	0.383007	0.121573	0.253297
0.091531	0.290879	0.374294	0.349746	0.188501	0.095970	0.125208	0.392394	0.122437	0.257785
0.088458	0.294939	0.378769	0.355272	0.183533	0.093168	0.122349	0.401477	0.123569	0.262363
0.085450	0.299071	0.382966	0.360693	0.178635	0.090454	0.119547	0.410223	0.124970	0.267043
0.082503	0.303262	0.386862	0.366004	0.173806	0.087830	0.116799	0.418601	0.126635	0.271835
0.079616	0.307503	0.390433	0.371201	0.169042	0.085297	0.114099	0.426575	0.128562	0.276746
0.076789	0.311781	0.393660	0.376279	0.164340	0.082857	0.111446	0.434112	0.130745	0.281778
0.074019	0.316087	0.396519	0.381239	0.159696	0.080510	0.108841	0.441179	0.133177	0.286932
0.071310	0.320411	0.398985	0.386091	0.155110	0.078253	0.106285	0.447746	0.135848	0.292203
0.068661	0.324741	0.401029	0.390849	0.150582	0.076085	0.103783	0.453785	0.138748	0.297584
0.066074	0.329067	0.402619	0.395530	0.146114	0.074004	0.101342	0.459266	0.141868	0.303064
0.063553	0.333371	0.403727	0.400147	0.141709	0.072006	0.098969	0.464161	0.145195	0.308630
0.061099	0.337635	0.404328	0.404710	0.137368	0.070088	0.096667	0.468450	0.148721	0.314267
0.058716	0.341836	0.404405	0.409224	0.133095	0.068247	0.094442	0.472122	0.152433	0.319954
0.056406	0.345949	0.403955	0.413694	0.128892	0.066480	0.092298	0.475181	0.156325	0.325668
0.054173	0.349945	0.402982	0.418123	0.124767	0.064785	0.090235	0.477643	0.160387	0.331384
0.052017	0.353798	0.401505	0.422512	0.120727	0.063161	0.088254	0.479539	0.164613	0.337075
0.049942	0.357484	0.399546	0.426867	0.116780	0.061607	0.086356	0.480904	0.168995	0.342715
0.047947	0.360983	0.397129	0.431190	0.112933	0.060123	0.084540	0.481784	0.173523	0.348283
0.046036	0.364282	0.394280	0.435482	0.109191	0.058706	0.082806	0.482223	0.178187	0.353759
0.044207	0.367376	0.391021	0.439742	0.105558	0.057356	0.081155	0.482263	0.182975	0.359125
0.042463	0.370269	0.387381	0.443963	0.102038	0.056070	0.079587	0.481942	0.187874	0.364362
0.040802	0.372970	0.383395	0.448136	0.098632	0.054847	0.078105	0.481293	0.192873	0.369450
0.039226	0.375493	0.379105	0.452255	0.095341	0.053684	0.076711	0.480343	0.197959	0.374374
0.037731	0.377851	0.374559	0.456314	0.092167	0.052581	0.075410	0.479115	0.203121	0.379119
0.036319	0.380054	0.369811	0.460313	0.089107	0.051538	0.074206	0.477625	0.208350	0.383679
0.034986	0.382113	0.364911	0.464253	0.086162	0.050555	0.073104	0.475887	0.213634	0.388049
0.033732	0.384045	0.359910	0.468133	0.083332	0.049635	0.072111	0.473908	0.218958	0.392226
0.032554	0.385869	0.354853	0.471953	0.080615	0.048779	0.071232	0.471693	0.224307	0.396207
0.031452	0.387610	0.349783	0.475711	0.078013	0.047989	0.070474	0.469249	0.229661	0.399988
0.030425	0.389296	0.344742	0.479408	0.075526	0.047265	0.069842	0.466578	0.235001	0.403562
0.029469	0.390956	0.339771	0.483054	0.073156	0.046608	0.069340	0.463691	0.240307	0.406926
0.028585	0.392618	0.334914	0.486662	0.070903	0.046021	0.068972	0.460599	0.245563	0.410084
0.027771	0.394309	0.330211	0.490247	0.068769	0.045502	0.068743	0.457321	0.250753	0.413046
0.027024	0.396052	0.325705	0.493821	0.066755	0.045053	0.068655	0.453881	0.255863	0.415825
0.026344	0.397875	0.321433	0.497394	0.064861	0.044674	0.068710	0.450309	0.260878	0.418437
0.025727	0.399803	0.317428	0.500973	0.063091	0.044363	0.068909	0.446639	0.265789	0.420895
0.025173	0.401863	0.313719	0.504565	0.061445	0.044120	0.069255	0.442908	0.270584	0.423217
0.024681	0.404082	0.310329	0.508173	0.059924	0.043945	0.069746	0.439152	0.275254	0.425424
0.024248	0.406484	0.307279	0.511795	0.058531	0.043835	0.070385	0.435406	0.279788	0.427535
0.023874	0.409093	0.304585	0.515424	0.057265	0.043788	0.071170	0.431705	0.284182	0.429569
0.023558	0.411928	0.302260	0.519050	0.056127	0.043804	0.072103	0.428086	0.288434	0.431539
0.023297	0.415003	0.300313	0.522659	0.055116	0.043879	0.073181	0.424594	0.292552	0.433454
0.023090	0.418330	0.298746	0.526242	0.054231	0.044012	0.074402	0.421275	0.296541	0.435320
0.022936	0.421914	0.297562	0.529789	0.053474	0.044199	0.075765	0.418177	0.300409	0.437143
0.022833	0.425760	0.296757	0.533291	0.052843	0.044441	0.077267	0.415343	0.304158	0.438931
0.022780	0.429868	0.296328	0.536737	0.052338	0.044735	0.078906	0.412813	0.307787	0.440698
0.022777	0.434234	0.296268	0.540120	0.051960	0.045080	0.080678	0.410623	0.311298	0.442468
0.022824	0.438853	0.296570	0.543437	0.051708	0.045477	0.082581	0.408803	0.314690	0.444271
0.022919	0.443719	0.297224	0.546691	0.051582	0.045923	0.084613	0.407379	0.317961	0.446139
0.023063	0.448821	0.298216	0.549891	0.051584	0.046416	0.086769	0.406368	0.321112	0.448101
0.023255	0.454146	0.299532	0.553048	0.051715	0.046953	0.089046	0.405784	0.324138	0.450192
0.023495	0.459676	0.301151	0.556177	0.051974	0.047531	0.091439	0.405636	0.327037	0.452445
0.023781	0.465388	0.303052	0.559286	0.052365	0.048145	0.093942	0.405927	0.329810	0.454894
0.024112	0.471251	0.305213	0.562382	0.052889	0.048792	0.096550	0.406661	0.332463	0.457573
0.024488	0.477231	0.307610	0.565462	0.053546	0.049466	0.099258	0.407840	0.335003	0.460514
0.024907	0.483289	0.310218	0.568516	0.054337	0.050163	0.102064	0.409467	0.337439	0.463748
0.025367	0.489386	0.313008	0.571531	0.055263	0.050879	0.104968	0.411542	0.339779	0.467298
0.025868	0.495485	0.315949	0.574494	0.056323	0.051610	0.107970	0.414065	0.342035	0.471184
0.026406	0.501548	0.319014	0.577400	0.057514	0.052353	0.111071	0.417031	0.344220	0.475419
0.026979	0.507538	0.322179	0.580258	0.058835	0.053105	0.114276	0.420428	0.346353	0.480011
0.027585	0.513419	0.325429	0.583093	0.060284	0.053864	0.117585	0.424241	0.348450	0.484959
0.028222	0.519153	0.328756	0.585940	0.061857	0.054626	0.121000	0.428448	0.350528	0.490258
0.028885	0.524699	0.332162	0.588847	0.063552	0.055390	0.124520	0.433025	0.352604	0.495894
0.029572	0.530010	0.335647	0.591860	0.065366	0.056155	0.128144	0.437949	0.354689	0.501850
0.030277	0.535042	0.339214	0.595029	0.067295	0.056922	0.131869	0.443194	0.356792	0.508102
0.030998	0.539748	0.342861	0.598397	0.069336	0.057690	0.135692	0.448737	0.358921	0.514624
0.031731	0.544084	0.346588	0.601999	0.071484	0.058461	0.139608	0.454554	0.361081	0.521388
0.032471	0.548013	0.350397	0.605867	0.073733	0.059236	0.143613	0.460615	0.363275	0.528358
0.033213	0.551511	0.354295	0.610027	0.076076	0.060016	0.147704	0.466889	0.365505	0.535496
0.033954	0.554561	0.358300	0.614507	0.078506	0.060801	0.151877	0.473340	0.367774	0.542758
0.034690	0.557160	0.362433	0.619329	0.081015	0.061592	0.156130	0.479937	0.370090	0.550098
0.035418	0.559309	0.366721	0.624518	0.083592	0.062388	0.160457	0.486644	0.372461	0.557466
0.036134	0.561013	0.371188	0.630091	0.086227	0.063190	0.164855	0.493429	0.374894	0.564806
0.036838	0.562272	0.375857	0.636067	0.088909	0.063995	0.169319	0.500254	0.377395	0.572057
0.037528	0.563082	0.380748	0.642469	0.091623	0.064803	0.173843	0.507075	0.379964	0.579151
0.038203	0.563445	0.385875	0.649324	0.094357	0.065612	0.178424	0.513851	0.382597	0.586017
0.038863	0.563366	0.391253	0.656659	0.097094	0.066422	0.183057	0.520540	0.385287	0.592577
0.039509	0.562866	0.396891	0.664507	0.099817	0.067233	0.187736	0.527105	0.388023	0.598755
0.040140	0.561977	0.402795	0.672898	0.102511	0.068046	0.192453	0.533519	0.390791	0.604476
0.040758	0.560744	0.408968	0.681856	0.105159	0.068864	0.197198	0.539758	0.393573	0.609671
0.041363	0.559223	0.415412	0.691404	0.107746	0.069687	0.201959	0.545804	0.396347	0.614278
0.041955	0.557474	0.422128	0.701553	0.110259	0.070517	0.206722	0.551645	0.399087	0.618239
0.042532	0.555561	0.429114	0.712309	0.112687	0.071354	0.211468	0.557271	0.401764	0.621498
0.043095	0.553542	0.436368	0.723663	0.115020	0.072199	0.216179	0.562672	0.404346	0.624000
0.043640	0.551473	0.443884	0.735600	0.117252	0.073051	0.220831	0.567836	0.406796	0.625687
0.044168	0.549401	0.451655	0.748092	0.119379	0.073908	0.225399	0.572753	0.409078	0.626508
0.044675	0.547370	0.459668	0.761105	0.121396	0.074770	0.229857	0.577416	0.411160	0.626424
0.045159	0.545416	0.467905	0.774592	0.123300	0.075634	0.234177	0.581825	0.413011	0.625419
0.045618	0.543575	0.476345	0.788501	0.125089	0.076500	0.238331	0.585989	0.414607	0.623492
0.046047	0.541878	0.484959	0.802772	0.126760	0.077367	0.242292	0.589922	0.415920	0.620658
0.046446	0.540356	0.493716	0.817332	0.128306	0.078232	0.246033	0.593646	0.416927	0.616933
0.046811	0.539034	0.502574	0.832098	0.129721	0.079097	0.249529	0.597191	0.417605	0.612339
0.047140	0.537934	0.511488	0.846977	0.131001	0.079958	0.252758	0.600596	0.417940	0.606902
0.047432	0.537071	0.520406	0.861870	0.132139	0.080814	0.255703	0.603900	0.417925	0.600664
0.047687	0.536458	0.529268	0.876669	0.133129	0.081662	0.258352	0.607142	0.417568	0.593686
0.047904	0.536098	0.538006	0.891266	0.133967	0.082499	0.260695	0.610357	0.416880	0.586039
0.048084	0.535991	0.546548	0.905548	0.134647	0.083323	0.262725	0.613571	0.415879	0.577794
0.048227	0.536129	0.554812	0.919397	0.135167	0.084133	0.264435	0.616809	0.414583	0.569026
0.048335	0.536495	0.562713	0.932693	0.135523	0.084926	0.265822	0.620085	0.413011	0.559811
0.048408	0.537067	0.570164	0.945324	0.135715	0.085701	0.266886	0.623406	0.411187	0.550226
0.048448	0.537816	0.577080	0.957186	0.135743	0.086457	0.267635	0.626769	0.409139	0.540355
0.048457	0.538706	0.583385	0.968185	0.135610	0.087193	0.268086	0.630162	0.406895	0.530281
0.048436	0.539695	0.589014	0.978240	0.135319	0.087907	0.268261	0.633564	0.404484	0.520086
0.048386	0.540738	0.593917	0.987286	0.134876	0.088600	0.268186	0.636944	0.401929	0.509845
0.048307	0.541787	0.598061	0.995280	0.134286	0.089267	0.267890	0.640261	0.399249	0.499627
0.048202	0.542789	0.601425	1.002185	0.133555	0.089906	0.267402	0.643466	0.396459	0.489497
0.048068	0.543692	0.603998	1.007971	0.132689	0.090513	0.266749	0.646504	0.393568	0.479508
0.047907	0.544438	0.605776	1.012598	0.131694	0.091085	0.265954	0.649315	0.390585	0.469712
0.047717	0.544975	0.606751	1.016029	0.130575	0.091618	0.265038	0.651836	0.387511	0.460151
0.047496	0.545251	0.606913	1.018222	0.129336	0.092105	0.264020	0.654004	0.384345	0.450865
0.047245	0.545224	0.606253	1.019143	0.127981	0.092542	0.262914	0.655759	0.381084	0.441886
0.046963	0.544863	0.604768	1.018762	0.126512	0.092924	0.261731	0.657041	0.377724	0.433247
0.046650	0.544148	0.602463	1.017054	0.124934	0.093246	0.260479	0.657795	0.374264	0.424971
0.046308	0.543071	0.599351	1.014002	0.123253	0.093504	0.259164	0.657972	0.370706	0.417079
0.045941	0.541632	0.595456	1.009594	0.121475	0.093699	0.257788	0.657534	0.367056	0.409588
0.045551	0.539837	0.590812	1.003835	0.119609	0.093831	0.256355	0.656455	0.363318	0.402511
0.045142	0.537686	0.585458	0.996749	0.117666	0.093903	0.254869	0.654717	0.359500	0.395853
0.044719	0.535178	0.579444	0.988379	0.115655	0.093920	0.253338	0.652308	0.355606	0.389620
0.044286	0.532308	0.572829	0.978779	0.113589	0.093892	0.251767	0.649216	0.351647	0.383815
0.043847	0.529068	0.565673	0.968002	0.111477	0.093834	0.250166	0.645427	0.347641	0.378443
0.043406	0.525451	0.558037	0.956094	0.109330	0.093764	0.248543	0.640930	0.343615	0.373509
0.042968	0.521449	0.549980	0.943096	0.107158	0.093699	0.246906	0.635725	0.339601	0.369019
0.042534	0.517059	0.541557	0.929049	0.104969	0.093658	0.245264	0.629827	0.335631	0.364978
0.042108	0.512279	0.532814	0.914002	0.102768	0.093657	0.243625	0.623269	0.331736	0.361390
0.041693	0.507115	0.523790	0.898017	0.100562	0.093715	0.241995	0.616101	0.327944	0.358256
0.041291	0.501577	0.514519	0.881164	0.098354	0.093849	0.240380	0.608383	0.324282	0.355575
0.040905	0.495684	0.505030	0.863517	0.096149	0.094076	0.238782	0.600179	0.320771	0.353342
0.040536	0.489464	0.495351	0.845149	0.093948	0.094412	0.237202	0.591554	0.317431	0.351548
0.040187	0.482949	0.485514	0.826137	0.091758	0.094875	0.235640	0.582566	0.314280	0.350178
0.039858	0.476177	0.475555	0.806564	0.089579	0.095479	0.234096	0.573267	0.311336	0.349218
0.039550	0.469188	0.465515	0.786522	0.087416	0.096239	0.232571	0.563705	0.308618	0.348651
0.039265	0.462022	0.455439	0.766106	0.085272	0.097170	0.231065	0.553919	0.306144	0.348463
0.039000	0.454718	0.445373	0.745410	0.083146	0.098285	0.229579	0.543947	0.303936	0.348644
0.038755	0.447311	0.435361	0.724524	0.081041	0.099598	0.228114	0.533819	0.302010	0.349183
0.038530	0.439831	0.425444	0.703539	0.078958	0.101122	0.226673	0.523561	0.300383	0.350069
0.038322	0.432306	0.415662	0.682544	0.076899	0.102868	0.225260	0.513193	0.299067	0.351288
0.038130	0.424761	0.406050	0.661627	0.074865	0.104848	0.223879	0.502731	0.298073	0.352822
0.037953	0.417221	0.396639	0.640879	0.072858	0.107071	0.222533	0.492191	0.297408	0.354652
0.037788	0.409714	0.387458	0.620383	0.070882	0.109546	0.221226	0.481585	0.297075	0.356754
0.037634	0.402270	0.378535	0.600220	0.068939	0.112279	0.219957	0.470928	0.297081	0.359104
0.037490	0.394928	0.369897	0.580461	0.067032	0.115278	0.218726	0.460233	0.297428	0.361677
0.037352	0.387726	0.361572	0.561173	0.065164	0.118547	0.217529	0.449516	0.298123	0.364446
0.037218	0.380709	0.353587	0.542411	0.063340	0.122087	0.216358	0.438797	0.299171	0.367384
0.037086	0.373916	0.345965	0.524227	0.061563	0.125902	0.215209	0.428099	0.300574	0.370466
0.036953	0.367388	0.338727	0.506669	0.059836	0.129989	0.214074	0.417452	0.302334	0.373673
0.036816	0.361158	0.331888	0.489783	0.058164	0.134348	0.212949	0.406883	0.304449	0.376983
0.036673	0.355260	0.325461	0.473616	0.056549	0.138973	0.211830	0.396420	0.306913	0.380378
0.036521	0.349728	0.319457	0.458211	0.054993	0.143861	0.210720	0.386091	0.309719	0.383833
0.036358	0.344590	0.313886	0.443606	0.053499	0.149003	0.209624	0.375920	0.312856	0.387327
0.036181	0.339875	0.308757	0.429837	0.052066	0.154391	0.208550	0.365935	0.316312	0.390834
0.035990	0.335608	0.304077	0.416928	0.050696	0.160014	0.207509	0.356163	0.320072	0.394335
0.035782	0.331811	0.299856	0.404902	0.049389	0.165862	0.206508	0.346629	0.324119	0.397817
0.035554	0.328500	0.296101	0.393774	0.048145	0.171919	0.205556	0.337357	0.328430	0.401272
0.035304	0.325688	0.292820	0.383554	0.046965	0.178172	0.204658	0.328365	0.332983	0.404695
0.035029	0.323384	0.290018	0.374246	0.045850	0.184604	0.203819	0.319672	0.337748	0.408080
0.034726	0.321591	0.287698	0.365850	0.044798	0.191196	0.203047	0.311294	0.342695	0.411426
0.034393	0.320310	0.285862	0.358361	0.043810	0.197931	0.202347	0.303245	0.347789	0.414729
0.034027	0.319540	0.284507	0.351768	0.042885	0.204788	0.201728	0.295535	0.352993	0.417989
0.033628	0.319278	0.283625	0.346056	0.042022	0.211746	0.201193	0.288175	0.358276	0.421204
0.033197	0.319516	0.283206	0.341208	0.041221	0.218781	0.200750	0.281169	0.363613	0.424371
0.032736	0.320250	0.283239	0.337198	0.040478	0.225869	0.200400	0.274518	0.368982	0.427486
0.032246	0.321470	0.283708	0.334000	0.039794	0.232985	0.200149	0.268221	0.374371	0.430542
0.031732	0.323168	0.284598	0.331581	0.039165	0.240101	0.200000	0.262272	0.379772	0.433529
0.031196	0.325332	0.285892	0.329906	0.038590	0.247188	0.199956	0.256666	0.385189	0.436435
0.030642	0.327951	0.287572	0.328934	0.038067	0.254217	0.200021	0.251396	0.390636	0.439245
0.030071	0.331008	0.289621	0.328621	0.037593	0.261153	0.200196	0.246458	0.396124	0.441938
0.029487	0.334486	0.292021	0.328918	0.037165	0.267962	0.200481	0.241846	0.401666	0.444490
0.028891	0.338362	0.294755	0.329772	0.036780	0.274607	0.200875	0.237563	0.407271	0.446872
0.028286	0.342609	0.297805	0.331124	0.036434	0.281049	0.201379	0.233610	0.412945	0.449051
0.027675	0.347197	0.301153	0.332912	0.036123	0.287250	0.201994	0.229998	0.418695	0.451000
0.027058	0.352095	0.304781	0.335067	0.035845	0.293176	0.202721	0.226732	0.424528	0.452702
0.026439	0.357269	0.308670	0.337515	0.035596	0.298794	0.203561	0.223821	0.430444	0.454154
0.025817	0.362687	0.312802	0.340180	0.035371	0.304077	0.204514	0.221267	0.436443	0.455366
0.025196	0.368316	0.317155	0.342977	0.035170	0.309000	0.205579	0.219075	0.442518	0.456353
0.024577	0.374125	0.321708	0.345823	0.034988	0.313543	0.206752	0.217246	0.448657	0.457131
0.023961	0.380086	0.326434	0.348630	0.034824	0.317687	0.208026	0.215782	0.454842	0.457721
0.023351	0.386170	0.331307	0.351313	0.034675	0.321414	0.209393	0.214684	0.461049	0.458144
0.022747	0.392350	0.336296	0.353787	0.034538	0.324706	0.210841	0.213957	0.467248	0.458424
0.022154	0.398595	0.341366	0.355964	0.034409	0.327542	0.212360	0.213601	0.473405	0.458587
0.021571	0.404877	0.346478	0.357768	0.034287	0.329899	0.213937	0.213620	0.479484	0.458663
0.021001	0.411159	0.351587	0.359132	0.034170	0.331755	0.215564	0.214014	0.485449	0.458682
0.020445	0.417401	0.356647	0.360009	0.034057	0.333097	0.217232	0.214785	0.491275	0.458679
0.019905	0.423561	0.361606	0.360370	0.033948	0.333922	0.218937	0.215931	0.496945	0.458686
0.019382	0.429591	0.366412	0.360198	0.033842	0.334243	0.220680	0.217446	0.502444	0.458733
0.018878	0.435442	0.371016	0.359480	0.033740	0.334082	0.222459	0.219322	0.507758	0.458845
0.018392	0.441065	0.375366	0.358213	0.033640	0.333467	0.224279	0.221551	0.512872	0.459045
0.017927	0.446411	0.379417	0.356401	0.033543	0.332425	0.226138	0.224122	0.517766	0.459353
0.017483	0.451431	0.383126	0.354061	0.033448	0.330990	0.228039	0.227023	0.522419	0.459784
0.017059	0.456078	0.386455	0.351220	0.033354	0.329191	0.229977	0.230244	0.526805	0.460351
0.016657	0.460308	0.389372	0.347910	0.033260	0.327064	0.231951	0.233772	0.530902	0.461064
0.016277	0.464081	0.391849	0.344167	0.033167	0.324641	0.233956	0.237596	0.534687	0.461926
0.015919	0.467359	0.393866	0.340028	0.033074	0.321957	0.235989	0.241701	0.538140	0.462937
0.015584	0.470110	0.395405	0.335531	0.032983	0.319040	0.238048	0.246072	0.541242	0.464091
0.015272	0.472302	0.396450	0.330709	0.032895	0.315917	0.240130	0.250691	0.543975	0.465375
0.014983	0.473912	0.396985	0.325594	0.032810	0.312612	0.242231	0.255539	0.546329	0.466773
0.014719	0.474915	0.396992	0.320214	0.032731	0.309146	0.244351	0.260594	0.548296	0.468260
0.014479	0.475288	0.396452	0.314596	0.032659	0.305540	0.246486	0.265830	0.549873	0.469809
0.014264	0.475008	0.395345	0.308760	0.032594	0.301814	0.248631	0.271220	0.551053	0.471389
0.014076	0.474050	0.393659	0.302729	0.032538	0.297989	0.250785	0.276736	0.551834	0.472961
0.013915	0.472401	0.391387	0.296521	0.032491	0.294082	0.252941	0.282348	0.552210	0.474484
0.013782	0.470057	0.388533	0.290153	0.032452	0.290116	0.255096	0.288024	0.552177	0.475911
0.013679	0.467030	0.385110	0.283643	0.032422	0.286108	0.257243	0.293734	0.551724	0.477192
0.013608	0.463344	0.381142	0.277005	0.032400	0.282078	0.259376	0.299444	0.550832	0.478277
0.013571	0.459033	0.376658	0.270254	0.032385	0.278044	0.261485	0.305122	0.549482	0.479111
0.013569	0.454138	0.371693	0.263400	0.032375	0.274019	0.263563	0.310736	0.547651	0.479639
0.013605	0.448703	0.366284	0.256458	0.032371	0.270020	0.265595	0.316252	0.545320	0.479802
0.013681	0.442774	0.360468	0.249442	0.032369	0.266058	0.267568	0.321634	0.542481	0.479543
0.013798	0.436394	0.354280	0.242368	0.032367	0.262146	0.269464	0.326844	0.539132	0.478811
0.013959	0.429603	0.347750	0.235254	0.032364	0.258294	0.271266	0.331842	0.535277	0.477569
0.014164	0.422435	0.340907	0.228117	0.032356	0.254511	0.272952	0.336587	0.530919	0.475791
0.014414	0.414921	0.333775	0.220976	0.032340	0.250802	0.274500	0.341038	0.526066	0.473462
0.014713	0.407087	0.326377	0.213851	0.032313	0.247171	0.275885	0.345157	0.520733	0.470574
0.015059	0.398956	0.318739	0.206760	0.032275	0.243616	0.277082	0.348912	0.514945	0.467132
0.015455	0.390551	0.310883	0.199720	0.032224	0.240135	0.278061	0.352275	0.508734	0.463159
0.015902	0.381896	0.302837	0.192748	0.032160	0.236719	0.278791	0.355225	0.502136	0.458688
0.016402	0.373016	0.294625	0.185857	0.032083	0.233362	0.279239	0.357740	0.495188	0.453765
0.016958	0.363937	0.286274	0.179061	0.031996	0.230053	0.279371	0.359798	0.487922	0.448443
0.017571	0.354688	0.277812	0.172370	0.031897	0.226782	0.279155	0.361379	0.480373	0.442773
0.018245	0.345300	0.269267	0.165796	0.031789	0.223540	0.278565	0.362466	0.472577	0.436805
0.018982	0.335801	0.260667	0.159347	0.031671	0.220317	0.277586	0.363046	0.464573	0.430584
0.019787	0.326225	0.252038	0.153031	0.031544	0.217108	0.276212	0.363112	0.456408	0.424148
0.020665	0.316601	0.243408	0.146852	0.031409	0.213909	0.274449	0.362662	0.448129	0.417533
0.021619	0.306961	0.234803	0.140815	0.031267	0.210720	0.272309	0.361703	0.439786	0.410766
0.022658	0.297336	0.226248	0.134923	0.031118	0.207543	0.269813	0.360242	0.431423	0.403873
0.023787	0.287754	0.217767	0.129180	0.030962	0.204387	0.266981	0.358289	0.423085	0.396874
0.025012	0.278242	0.209381	0.123587	0.030799	0.201261	0.263830	0.355860	0.414810	0.389787
0.026342	0.268828	0.201109	0.118148	0.030630	0.198175	0.260380	0.352978	0.406635	0.382627
0.027783	0.259534	0.192969	0.112867	0.030454	0.195137	0.256647	0.349683	0.398592	0.375403
0.029343	0.250379	0.184975	0.107746	0.030271	0.192155	0.252649	0.346022	0.390713	0.368120
0.031028	0.241381	0.177140	0.102790	0.030081	0.189234	0.248408	0.342049	0.383034	0.360779
0.032845	0.232553	0.169471	0.098002	0.029884	0.186378	0.243952	0.337820	0.375591	0.353379
0.034803	0.223907	0.161977	0.093386	0.029680	0.183591	0.239310	0.333388	0.368419	0.345917
0.036909	0.215451	0.154663	0.088945	0.029471	0.180876	0.234516	0.328803	0.361553	0.338392
0.039171	0.207195	0.147533	0.084681	0.029257	0.178241	0.229603	0.324114	0.355026	0.330807
0.041597	0.199144	0.140592	0.080596	0.029041	0.175696	0.224604	0.319364	0.348867	0.323173
0.044197	0.191305	0.133840	0.076694	0.028825	0.173253	0.219554	0.314593	0.343103	0.315507
0.046978	0.183682	0.127281	0.072975	0.028609	0.170928	0.214485	0.309837	0.337758	0.307831
0.049948	0.176280	0.120915	0.069439	0.028397	0.168738	0.209431	0.305129	0.332855	0.300169
0.053115	0.169103	0.114743	0.066086	0.028188	0.166698	0.204426	0.300497	0.328414	0.292550
0.056485	0.162154	0.108767	0.062915	0.027985	0.164824	0.199499	0.295965	0.324450	0.285006
0.060065	0.155435	0.102985	0.059924	0.027788	0.163133	0.194681	0.291556	0.320977	0.277572
0.063861	0.148950	0.097399	0.057110	0.027598	0.161638	0.189997	0.287294	0.318002	0.270283
0.067877	0.142701	0.092008	0.054470	0.027417	0.160350	0.185472	0.283199	0.315533	0.263173
0.072117	0.136690	0.086813	0.052001	0.027246	0.159283	0.181127	0.279292	0.313571	0.256271
0.076585	0.130919	0.081814	0.049698	0.027086	0.158444	0.176982	0.275593	0.312119	0.249606
0.081283	0.125389	0.077009	0.047557	0.026938	0.157842	0.173052	0.272117	0.311174	0.243203
0.086211	0.120103	0.072399	0.045572	0.026804	0.157481	0.169353	0.268878	0.310733	0.237084
0.091371	0.115059	0.067983	0.043738	0.026683	0.157366	0.165896	0.265883	0.310788	0.231266
0.096761	0.110259	0.063759	0.042049	0.026577	0.157498	0.162690	0.263140	0.311327	0.225765
0.102382	0.105702	0.059726	0.040499	0.026486	0.157877	0.159742	0.260649	0.312334	0.220591
0.108233	0.101387	0.055881	0.039081	0.026411	0.158500	0.157056	0.258407	0.313787	0.215752
0.114317	0.097311	0.052223	0.037790	0.026350	0.159364	0.154635	0.256410	0.315660	0.211253
0.120639	0.093474	0.048747	0.036619	0.026305	0.160461	0.152478	0.254647	0.317924	0.207095
0.127210	0.089871	0.045450	0.035560	0.026274	0.161783	0.150583	0.253106	0.320543	0.203276
0.134039	0.086499	0.042326	0.034608	0.026258	0.163320	0.148945	0.251771	0.323479	0.199792
0.141142	0.083352	0.039372	0.033755	0.026254	0.165059	0.147558	0.250626	0.326687	0.196636
0.148530	0.080424	0.036581	0.032993	0.026262	0.166987	0.146413	0.249652	0.330117	0.193799
0.156217	0.077710	0.033947	0.032316	0.026281	0.169089	0.145500	0.248829	0.333716	0.191270
0.164212	0.075202	0.031464	0.031714	0.026309	0.171348	0.144808	0.248138	0.337427	0.189036
0.172525	0.072893	0.029126	0.031180	0.026343	0.173747	0.144323	0.247559	0.341190	0.187085
0.181166	0.070775	0.026926	0.030709	0.026383	0.176266	0.144032	0.247078	0.344945	0.185399
0.190144	0.068843	0.024858	0.030293	0.026425	0.178883	0.143919	0.246682	0.348631	0.183964
0.199470	0.067089	0.022916	0.029927	0.026468	0.181573	0.143968	0.246360	0.352185	0.182761
0.209157	0.065508	0.021094	0.029606	0.026509	0.184309	0.144160	0.246100	0.355543	0.181772
0.219220	0.064094	0.019385	0.029325	0.026544	0.187066	0.144474	0.245887	0.358633	0.180975
0.229672	0.062845	0.017784	0.029078	0.026572	0.189814	0.144890	0.245704	0.361383	0.180346
0.240532	0.061759	0.016286	0.028862	0.026588	0.192527	0.145385	0.245533	0.363726	0.179858
0.251813	0.060836	0.014887	0.028669	0.026591	0.195176	0.145940	0.245352	0.365605	0.179485
0.263532	0.060076	0.013582	0.028494	0.026575	0.197737	0.146533	0.245137	0.366983	0.179198
0.275702	0.059479	0.012367	0.028331	0.026539	0.200183	0.147144	0.244866	0.367840	0.178969
0.288333	0.059047	0.011238	0.028175	0.026480	0.202489	0.147755	0.244519	0.368166	0.178769
0.301433	0.058779	0.010192	0.028019	0.026394	0.204633	0.148351	0.244078	0.367952	0.178573
0.315005	0.058674	0.009226	0.027860	0.026282	0.206596	0.148917	0.243524	0.367189	0.178358
0.329050	0.058730	0.008335	0.027694	0.026141	0.208362	0.149443	0.242839	0.365875	0.178102
0.343568	0.058943	0.007516	0.027519	0.025970	0.209918	0.149919	0.242007	0.364012	0.177786
0.358552	0.059312	0.006768	0.027334	0.025769	0.211252	0.150338	0.241016	0.361618	0.177393
0.373994	0.059831	0.006086	0.027140	0.025536	0.212350	0.150690	0.239859	0.358724	0.176907
0.389883	0.060499	0.005469	0.026935	0.025271	0.213200	0.150966	0.238537	0.355367	0.176312
0.406202	0.061310	0.004913	0.026723	0.024973	0.213787	0.151153	0.237053	0.351590	0.175593
0.422929	0.062265	0.004415	0.026502	0.024642	0.214098	0.151239	0.235411	0.347435	0.174735
0.440044	0.063361	0.003973	0.026274	0.024277	0.214124	0.151210	0.233616	0.342942	0.173729
0.457520	0.064598	0.003584	0.026039	0.023880	0.213859	0.151053	0.231671	0.338149	0.172569
0.475333	0.065977	0.003245	0.025796	0.023451	0.213301	0.150758	0.229582	0.333092	0.171252
0.493450	0.067498	0.002953	0.025545	0.022992	0.212452	0.150318	0.227354	0.327808	0.169776
0.511837	0.069163	0.002706	0.025285	0.022506	0.211320	0.149731	0.224991	0.322329	0.168143
0.530455	0.070971	0.002500	0.025016	0.021994	0.209912	0.148996	0.222492	0.316691	0.166355
0.549263	0.072922	0.002334	0.024735	0.021458	0.208243	0.148117	0.219856	0.310920	0.164416
0.568219	0.075015	0.002204	0.024443	0.020900	0.206324	0.147100	0.217079	0.305044	0.162326
0.587277	0.077246	0.002107	0.024137	0.020322	0.204170	0.145951	0.214154	0.299081	0.160087
0.606388	0.079614	0.002042	0.023819	0.019726	0.201791	0.144677	0.211072	0.293050	0.157699
0.625495	0.082116	0.002007	0.023487	0.019113	0.199199	0.143284	0.207824	0.286960	0.155165
0.644538	0.084748	0.001998	0.023143	0.018483	0.196402	0.141777	0.204404	0.280823	0.152488
0.663457	0.087508	0.002013	0.022787	0.017838	0.193411	0.140158	0.200810	0.274643	0.149672
0.682194	0.090393	0.002052	0.022420	0.017179	0.190233	0.138429	0.197047	0.268422	0.146725
0.700699	0.093400	0.002111	0.022045	0.016506	0.186880	0.136591	0.193120	0.262164	0.143653
0.718928	0.096526	0.002190	0.021662	0.015820	0.183361	0.134646	0.189042	0.255867	0.140465
0.736843	0.099767	0.002287	0.021275	0.015122	0.179692	0.132597	0.184820	0.249532	0.137170
0.754414	0.103118	0.002400	0.020885	0.014413	0.175886	0.130451	0.180464	0.243162	0.133778
0.771612	0.106574	0.002528	0.020494	0.013693	0.171962	0.128215	0.175987	0.236763	0.130297
0.788405	0.110129	0.002670	0.020103	0.012963	0.167937	0.125899	0.171399	0.230342	0.126735
0.804757	0.113776	0.002824	0.019714	0.012224	0.163827	0.123516	0.166716	0.223908	0.123101
0.820623	0.117508	0.002989	0.019327	0.011477	0.159648	0.121077	0.161952	0.217471	0.119402
0.835947	0.121317	0.003164	0.018944	0.010723	0.155415	0.118595	0.157121	0.211037	0.115651
0.850667	0.125193	0.003348	0.018565	0.009965	0.151140	0.116079	0.152235	0.204614	0.111859
0.864712	0.129126	0.003540	0.018191	0.009205	0.146834	0.113538	0.147310	0.198212	0.108040
0.878006	0.133104	0.003739	0.017823	0.008444	0.142507	0.110979	0.142358	0.191842	0.104208
0.890471	0.137115	0.003945	0.017463	0.007685	0.138166	0.108408	0.137395	0.185516	0.100376
0.902032	0.141145	0.004156	0.017110	0.006930	0.133820	0.105829	0.132434	0.179248	0.096554
0.912626	0.145181	0.004371	0.016768	0.006180	0.129476	0.103249	0.127486	0.173047	0.092753
0.922206	0.149209	0.004589	0.016438	0.005437	0.125143	0.100671	0.122565	0.166923	0.088983
0.930743	0.153218	0.004810	0.016120	0.004703	0.120830	0.098100	0.117680	0.160888	0.085252
0.938230	0.157199	0.005034	0.015817	0.003980	0.116547	0.095542	0.112844	0.154954	0.081567
0.944676	0.161145	0.005258	0.015530	0.003269	0.112304	0.093003	0.108068	0.149132	0.077937
0.950100	0.165051	0.005485	0.015260	0.002573	0.108112	0.090489	0.103362	0.143437	0.074368
0.954527	0.168914	0.005712	0.015007	0.001892	0.103981	0.088007	0.098737	0.137879	0.070866
0.957979	0.172731	0.005940	0.014773	0.001229	0.099920	0.085562	0.094203	0.132466	0.067439
0.960468	0.176500	0.006169	0.014558	0.000587	0.095935	0.083160	0.089768	0.127206	0.064093
0.962001	0.180218	0.006398	0.014362	-0.000031	0.092034	0.080806	0.085439	0.122104	0.060835
0.962583	0.183881	0.006626	0.014186	-0.000624	0.088221	0.078503	0.081222	0.117165	0.057670
0.962221	0.187482	0.006854	0.014030	-0.001187	0.084501	0.076255	0.077123	0.112391	0.054603
0.960932	0.191015	0.007080	0.013894	-0.001718	0.080877	0.074063	0.073147	0.107784	0.051639
0.958740	0.194468	0.007305	0.013778	-0.002213	0.077352	0.071929	0.069296	0.103345	0.048780
0.955685	0.197828	0.007528	0.013681	-0.002668	0.073926	0.069853	0.065573	0.099075	0.046032
0.951822	0.201082	0.007747	0.013605	-0.003079	0.070600	0.067835	0.061979	0.094973	0.043396
0.947218	0.204213	0.007963	0.013549	-0.003442	0.067374	0.065874	0.058515	0.091038	0.040874
0.941953	0.207208	0.008175	0.013513	-0.003753	0.064249	0.063969	0.055183	0.087268	0.038468
0.936113	0.210054	0.008381	0.013496	-0.004008	0.061222	0.062119	0.051982	0.083662	0.036180
0.929791	0.212743	0.008583	0.013498	-0.004202	0.058296	0.060324	0.048914	0.080216	0.034009
0.923078	0.215267	0.008778	0.013518	-0.004329	0.055467	0.058582	0.045979	0.076928	0.031957
0.916063	0.217625	0.008967	0.013555	-0.004387	0.052737	0.056895	0.043177	0.073795	0.030024
0.908826	0.219817	0.009149	0.013609	-0.004370	0.050104	0.055262	0.040506	0.070813	0.028209
0.901437	0.221845	0.009324	0.013679	-0.004272	0.047568	0.053684	0.037967	0.067979	0.026512
0.893957	0.223717	0.009491	0.013763	-0.004089	0.045130	0.052164	0.035556	0.065288	0.024932
0.886436	0.225438	0.009652	0.013861	-0.003816	0.042788	0.050701	0.033273	0.062737	0.023468
0.878916	0.227017	0.009806	0.013971	-0.003446	0.040542	0.049298	0.031114	0.060323	0.022118
0.871436	0.228461	0.009953	0.014093	-0.002974	0.038391	0.047955	0.029077	0.058041	0.020881
0.864030	0.229776	0.010094	0.014225	-0.002394	0.036333	0.046674	0.027157	0.055886	0.019755
0.856724	0.230964	0.010229	0.014366	-0.001702	0.034367	0.045454	0.025353	0.053855	0.018738
0.849544	0.232027	0.010358	0.014514	-0.000890	0.032489	0.044295	0.023659	0.051941	0.017827
0.842505	0.232963	0.010482	0.014670	0.000047	0.030696	0.043198	0.022072	0.050140	0.017020
0.835622	0.233768	0.010602	0.014830	0.001115	0.028987	0.042160	0.020589	0.048446	0.016314
0.828904	0.234440	0.010716	0.014996	0.002320	0.027359	0.041180	0.019206	0.046852	0.015707
0.822352	0.234974	0.010825	0.015164	0.003668	0.025810	0.040257	0.017919	0.045351	0.015197
0.815964	0.235368	0.010929	0.015335	0.005165	0.024337	0.039388	0.016724	0.043936	0.014781
0.809731	0.235617	0.011028	0.015506	0.006818	0.022938	0.038570	0.015618	0.042600	0.014456
0.803641	0.235720	0.011122	0.015676	0.008631	0.021612	0.037801	0.014596	0.041335	0.014221
0.797680	0.235671	0.011211	0.015843	0.010613	0.020356	0.037078	0.013655	0.040136	0.014073
0.791836	0.235470	0.011294	0.016008	0.012768	0.019167	0.036397	0.012791	0.038996	0.014008
0.786098	0.235113	0.011371	0.016169	0.015103	0.018043	0.035755	0.011999	0.037909	0.014024
0.780461	0.234601	0.011442	0.016325	0.017625	0.016982	0.035149	0.011275	0.036871	0.014119
0.774925	0.233937	0.011506	0.016474	0.020337	0.015983	0.034577	0.010614	0.035877	0.014290
0.769494	0.233123	0.011564	0.016616	0.023248	0.015043	0.034035	0.010012	0.034924	0.014534
0.764171	0.232164	0.011616	0.016749	0.026361	0.014162	0.033523	0.009464	0.034009	0.014849
0.758961	0.231067	0.011661	0.016871	0.029682	0.013338	0.033039	0.008965	0.033129	0.015233
0.753862	0.229837	0.011700	0.016982	0.033218	0.012571	0.032580	0.008512	0.032281	0.015683
0.748864	0.228482	0.011734	0.017080	0.036972	0.011857	0.032146	0.008101	0.031465	0.016198
0.743951	0.227008	0.011763	0.017165	0.040949	0.011197	0.031736	0.007730	0.030678	0.016773
0.739099	0.225419	0.011789	0.017236	0.045155	0.010587	0.031347	0.007395	0.029919	0.017407
0.734285	0.223719	0.011811	0.017291	0.049592	0.010027	0.030978	0.007094	0.029185	0.018096
0.729486	0.221911	0.011831	0.017332	0.054264	0.009513	0.030629	0.006825	0.028477	0.018837
0.724688	0.219994	0.011850	0.017357	0.059174	0.009045	0.030298	0.006585	0.027790	0.019627
0.719886	0.217964	0.011868	0.017368	0.064324	0.008619	0.029984	0.006371	0.027123	0.020461
0.715088	0.215818	0.011887	0.017365	0.069716	0.008234	0.029687	0.006183	0.026474	0.021337
0.710313	0.213548	0.011907	0.017349	0.075350	0.007887	0.029404	0.006017	0.025840	0.022251
0.705590	0.211149	0.011929	0.017320	0.081225	0.007575	0.029136	0.005873	0.025219	0.023197
0.700953	0.208619	0.011953	0.017281	0.087341	0.007298	0.028880	0.005750	0.024610	0.024174
0.696438	0.205960	0.011980	0.017231	0.093694	0.007052	0.028636	0.005646	0.024012	0.025176
0.692074	0.203176	0.012009	0.017172	0.100280	0.006837	0.028403	0.005560	0.023424	0.026200
0.687884	0.200282	0.012042	0.017106	0.107094	0.006649	0.028181	0.005491	0.022847	0.027242
0.683889	0.197292	0.012077	0.017033	0.114128	0.006489	0.027969	0.005439	0.022281	0.028299
0.680108	0.194228	0.012116	0.016955	0.121375	0.006353	0.027769	0.005402	0.021726	0.029367
0.676557	0.191113	0.012157	0.016874	0.128822	0.006241	0.027579	0.005380	0.021184	0.030443
0.673254	0.187971	0.012200	0.016790	0.136460	0.006150	0.027402	0.005372	0.020657	0.031522
0.670213	0.184827	0.012246	0.016704	0.144272	0.006078	0.027235	0.005378	0.020145	0.032603
0.667446	0.181705	0.012293	0.016618	0.152244	0.006025	0.027081	0.005396	0.019650	0.033680
0.664958	0.178629	0.012342	0.016533	0.160358	0.005987	0.026937	0.005426	0.019174	0.034751
0.662748	0.175619	0.012391	0.016449	0.168594	0.005964	0.026805	0.005467	0.018717	0.035813
0.660805	0.172694	0.012441	0.016368	0.176933	0.005953	0.026684	0.005519	0.018281	0.036864
0.659113	0.169874	0.012490	0.016290	0.185349	0.005954	0.026572	0.005581	0.017866	0.037900
0.657652	0.167176	0.012537	0.016215	0.193819	0.005965	0.026469	0.005653	0.017474	0.038919
0.656401	0.164617	0.012583	0.016144	0.202316	0.005985	0.026373	0.005735	0.017103	0.039918
0.655339	0.162216	0.012626	0.016077	0.210814	0.006012	0.026283	0.005826	0.016754	0.040894
0.654452	0.159991	0.012667	0.016013	0.219285	0.006046	0.026199	0.005926	0.016427	0.041844
0.653723	0.157961	0.012704	0.015953	0.227705	0.006086	0.026117	0.006036	0.016122	0.042761
0.653139	0.156143	0.012738	0.015897	0.236051	0.006132	0.026038	0.006155	0.015838	0.043643
0.652681	0.154553	0.012769	0.015843	0.244300	0.006181	0.025961	0.006283	0.015575	0.044483
0.652327	0.153208	0.012796	0.015793	0.252433	0.006234	0.025883	0.006421	0.015333	0.045276
0.652049	0.152120	0.012819	0.015747	0.260433	0.006291	0.025804	0.006570	0.015111	0.046020
0.651813	0.151300	0.012840	0.015704	0.268282	0.006350	0.025723	0.006731	0.014909	0.046712
0.651590	0.150760	0.012859	0.015667	0.275962	0.006411	0.025640	0.006903	0.014726	0.047353
0.651352	0.150508	0.012875	0.015635	0.283453	0.006475	0.025554	0.007088	0.014563	0.047944
0.651080	0.150555	0.012890	0.015609	0.290738	0.006541	0.025463	0.007286	0.014419	0.048488
0.650759	0.150910	0.012905	0.015590	0.297799	0.006608	0.025367	0.007498	0.014292	0.048988
0.650383	0.151583	0.012918	0.015577	0.304624	0.006677	0.025263	0.007725	0.014183	0.049447
0.649948	0.152583	0.012932	0.015570	0.311206	0.006746	0.025151	0.007966	0.014089	0.049868
0.649455	0.153920	0.012946	0.015570	0.317537	0.006816	0.025027	0.008222	0.014012	0.050250
0.648905	0.155601	0.012961	0.015576	0.323620	0.006885	0.024892	0.008493	0.013949	0.050597
0.648299	0.157634	0.012976	0.015587	0.329461	0.006954	0.024744	0.008779	0.013901	0.050908
0.647632	0.160028	0.012992	0.015603	0.335075	0.007022	0.024581	0.009081	0.013867	0.051182
0.646894	0.162787	0.013009	0.015624	0.340476	0.007088	0.024404	0.009398	0.013847	0.051419
0.646066	0.165916	0.013025	0.015650	0.345678	0.007152	0.024213	0.009730	0.013842	0.051619
0.645127	0.169419	0.013042	0.015682	0.350693	0.007214	0.024009	0.010077	0.013850	0.051779
0.644051	0.173295	0.013058	0.015719	0.355530	0.007273	0.023792	0.010440	0.013872	0.051900
0.642817	0.177545	0.013072	0.015763	0.360196	0.007331	0.023563	0.010817	0.013908	0.051981
0.641406	0.182167	0.013086	0.015813	0.364699	0.007387	0.023323	0.011209	0.013957	0.052023
0.639806	0.187160	0.013097	0.015870	0.369051	0.007441	0.023075	0.011616	0.014020	0.052026
0.638009	0.192521	0.013106	0.015935	0.373272	0.007494	0.022819	0.012037	0.014096	0.051992
0.636014	0.198246	0.013112	0.016008	0.377383	0.007547	0.022557	0.012473	0.014184	0.051922
0.633822	0.204333	0.013114	0.016089	0.381409	0.007598	0.022290	0.012922	0.014287	0.051818
0.631439	0.210773	0.013113	0.016178	0.385372	0.007649	0.022019	0.013385	0.014403	0.051684
0.628863	0.217559	0.013108	0.016275	0.389290	0.007699	0.021744	0.013862	0.014532	0.051522
0.626092	0.224680	0.013099	0.016381	0.393178	0.007748	0.021469	0.014351	0.014675	0.051335
0.623115	0.232122	0.013086	0.016493	0.397046	0.007797	0.021193	0.014852	0.014831	0.051126
0.619925	0.239869	0.013069	0.016613	0.400906	0.007844	0.020918	0.015364	0.015000	0.050898
0.616513	0.247903	0.013048	0.016739	0.404766	0.007890	0.020645	0.015886	0.015182	0.050654
0.612876	0.256200	0.013022	0.016871	0.408639	0.007936	0.020375	0.016416	0.015376	0.050394
0.609018	0.264735	0.012991	0.017009	0.412536	0.007982	0.020110	0.016952	0.015582	0.050121
0.604945	0.273480	0.012955	0.017150	0.416470	0.008028	0.019851	0.017494	0.015798	0.049834
0.600672	0.282406	0.012914	0.017296	0.420448	0.008074	0.019598	0.018039	0.016024	0.049536
0.596218	0.291484	0.012869	0.017444	0.424476	0.008121	0.019351	0.018585	0.016259	0.049225
0.591601	0.300685	0.012818	0.017593	0.428557	0.008169	0.019112	0.019130	0.016502	0.048903
0.586838	0.309984	0.012761	0.017742	0.432690	0.008218	0.018879	0.019671	0.016752	0.048569
0.581939	0.319356	0.012699	0.017891	0.436872	0.008269	0.018654	0.020206	0.017006	0.048224
0.576911	0.328779	0.012631	0.018037	0.441102	0.008321	0.018436	0.020733	0.017263	0.047868
0.571752	0.338224	0.012557	0.018180	0.445376	0.008374	0.018225	0.021247	0.017520	0.047501
0.566463	0.347668	0.012476	0.018318	0.449691	0.008428	0.018021	0.021747	0.017777	0.047123
0.561042	0.357081	0.012388	0.018451	0.454043	0.008484	0.017822	0.022230	0.018029	0.046735
0.555493	0.366433	0.012291	0.018576	0.458423	0.008540	0.017630	0.022693	0.018277	0.046337
0.549824	0.375690	0.012187	0.018694	0.462825	0.008597	0.017443	0.023135	0.018517	0.045930
0.544050	0.384816	0.012073	0.018801	0.467246	0.008653	0.017259	0.023552	0.018749	0.045516
0.538193	0.393774	0.011950	0.018897	0.471696	0.008710	0.017080	0.023944	0.018972	0.045096
0.532281	0.402532	0.011817	0.018979	0.476188	0.008767	0.016902	0.024307	0.019183	0.044671
