/forceset/addlong_r/activation	/forceset/recfem_r/activation	/forceset/vaslat_r/activation	/forceset/vasmed_r/activation	/forceset/tibant_r/activation	/forceset/bflh_r/activation	/forceset/semiten_r/activation	/forceset/gaslat_r/activation	/forceset/gasmed_r/activation	/forceset/soleus_r/activation
-0.377735	0.071377	0.002189	-0.000061	-0.218269	0.009696	-0.031356	0.000563	-0.003153	0.007968
-0.316357	0.080060	0.002447	0.000530	-0.191484	0.010043	-0.027620	0.000845	-0.002460	0.010126
-0.256220	0.088975	0.002704	0.001115	-0.165050	0.010388	-0.023953	0.001130	-0.001776	0.012270
-0.197569	0.098105	0.002959	0.001690	-0.139062	0.010731	-0.020371	0.001419	-0.001103	0.014392
-0.140626	0.107438	0.003211	0.002254	-0.113601	0.011070	-0.016888	0.001709	-0.000444	0.016488
-0.085583	0.116961	0.003460	0.002805	-0.088729	0.011405	-0.013515	0.002001	0.000201	0.018550
-0.032601	0.126663	0.003704	0.003342	-0.064496	0.011734	-0.010261	0.002295	0.000829	0.020576
0.018197	0.136533	0.003943	0.003863	-0.040943	0.012057	-0.007133	0.002591	0.001439	0.022561
0.066721	0.146561	0.004175	0.004367	-0.018095	0.012373	-0.004136	0.002888	0.002032	0.024504
0.112914	0.156735	0.004400	0.004853	0.004032	0.012682	-0.001273	0.003187	0.002606	0.026402
0.156751	0.167040	0.004617	0.005319	0.025433	0.012982	0.001455	0.003487	0.003163	0.028255
0.198226	0.177462	0.004824	0.005766	0.046108	0.013273	0.004050	0.003790	0.003702	0.030061
0.237352	0.187983	0.005021	0.006193	0.066060	0.013553	0.006510	0.004094	0.004223	0.031820
0.274145	0.198586	0.005208	0.006601	0.085295	0.013822	0.008839	0.004401	0.004727	0.033530
0.308628	0.209255	0.005382	0.006990	0.103819	0.014079	0.011039	0.004710	0.005213	0.035190
0.340825	0.219978	0.005543	0.007361	0.121643	0.014321	0.013111	0.005022	0.005682	0.036799
0.370765	0.230744	0.005691	0.007715	0.138783	0.014548	0.015059	0.005337	0.006135	0.038356
0.398490	0.241548	0.005826	0.008053	0.155258	0.014758	0.016885	0.005655	0.006572	0.039861
0.424049	0.252388	0.005947	0.008375	0.171087	0.014950	0.018594	0.005977	0.006993	0.041315
0.447505	0.263266	0.006055	0.008683	0.186289	0.015122	0.020188	0.006304	0.007399	0.042718
0.468927	0.274184	0.006150	0.008977	0.200881	0.015272	0.021674	0.006635	0.007792	0.044072
0.488394	0.285147	0.006233	0.009259	0.214880	0.015400	0.023055	0.006971	0.008171	0.045376
0.505994	0.296160	0.006303	0.009528	0.228301	0.015504	0.024338	0.007312	0.008538	0.046633
0.521822	0.307226	0.006361	0.009786	0.241160	0.015581	0.025527	0.007660	0.008894	0.047844
0.535982	0.318349	0.006407	0.010034	0.253471	0.015632	0.026630	0.008013	0.009240	0.049012
0.548583	0.329529	0.006443	0.010273	0.265250	0.015656	0.027652	0.008372	0.009575	0.050137
0.559736	0.340766	0.006468	0.010502	0.276510	0.015654	0.028601	0.008737	0.009902	0.051224
0.569556	0.352059	0.006483	0.010724	0.287266	0.015626	0.029484	0.009108	0.010220	0.052274
0.578156	0.363414	0.006488	0.010939	0.297532	0.015576	0.030305	0.009485	0.010531	0.053291
0.585643	0.374836	0.006484	0.011149	0.307322	0.015505	0.031073	0.009868	0.010836	0.054279
0.592117	0.386337	0.006472	0.011353	0.316654	0.015415	0.031791	0.010256	0.011135	0.055239
0.597673	0.397925	0.006453	0.011553	0.325548	0.015310	0.032466	0.010649	0.011428	0.056175
0.602398	0.409606	0.006428	0.011750	0.334024	0.015191	0.033101	0.011048	0.011718	0.057089
0.606377	0.421383	0.006397	0.011945	0.342099	0.015061	0.033703	0.011451	0.012003	0.057984
0.609690	0.433254	0.006362	0.012137	0.349791	0.014923	0.034275	0.011859	0.012286	0.058859
0.612413	0.445214	0.006324	0.012328	0.357118	0.014779	0.034821	0.012273	0.012567	0.059715
0.614623	0.457253	0.006283	0.012517	0.364096	0.014630	0.035343	0.012691	0.012847	0.060553
0.616396	0.469361	0.006242	0.012705	0.370744	0.014480	0.035846	0.013115	0.013125	0.061371
0.617802	0.481521	0.006200	0.012892	0.377078	0.014330	0.036330	0.013544	0.013402	0.062169
0.618907	0.493714	0.006159	0.013077	0.383110	0.014183	0.036799	0.013978	0.013679	0.062944
0.619768	0.505916	0.006119	0.013261	0.388853	0.014039	0.037252	0.014416	0.013955	0.063695
0.620437	0.518098	0.006081	0.013444	0.394312	0.013900	0.037693	0.014858	0.014231	0.064420
0.620954	0.530230	0.006046	0.013624	0.399491	0.013767	0.038121	0.015302	0.014508	0.065118
0.621355	0.542280	0.006014	0.013802	0.404394	0.013642	0.038539	0.015749	0.014784	0.065787
0.621667	0.554215	0.005985	0.013977	0.409023	0.013526	0.038946	0.016196	0.015060	0.066425
0.621913	0.565998	0.005960	0.014149	0.413383	0.013418	0.039343	0.016643	0.015335	0.067033
0.622105	0.577596	0.005940	0.014317	0.417483	0.013321	0.039731	0.017088	0.015610	0.067610
0.622252	0.588972	0.005924	0.014482	0.421329	0.013234	0.040108	0.017528	0.015882	0.068158
0.622352	0.600089	0.005913	0.014643	0.424930	0.013158	0.040475	0.017963	0.016152	0.068678
0.622398	0.610909	0.005908	0.014799	0.428301	0.013094	0.040829	0.018390	0.016419	0.069171
0.622374	0.621393	0.005907	0.014951	0.431467	0.013040	0.041171	0.018807	0.016681	0.069641
0.622260	0.631504	0.005911	0.015097	0.434465	0.012997	0.041499	0.019212	0.016938	0.070091
0.622036	0.641198	0.005921	0.015237	0.437337	0.012966	0.041811	0.019601	0.017186	0.070523
0.621683	0.650432	0.005935	0.015372	0.440128	0.012945	0.042106	0.019974	0.017426	0.070939
0.621186	0.659152	0.005955	0.015502	0.442887	0.012934	0.042384	0.020328	0.017657	0.071341
0.620534	0.667302	0.005980	0.015628	0.445666	0.012933	0.042641	0.020663	0.017876	0.071729
0.619724	0.674822	0.006010	0.015749	0.448519	0.012941	0.042875	0.020979	0.018085	0.072103
0.618759	0.681659	0.006044	0.015868	0.451499	0.012957	0.043085	0.021276	0.018282	0.072461
0.617646	0.687772	0.006082	0.015983	0.454656	0.012981	0.043267	0.021555	0.018468	0.072801
0.616395	0.693143	0.006125	0.016096	0.458035	0.013011	0.043419	0.021816	0.018644	0.073121
0.615011	0.697774	0.006171	0.016207	0.461674	0.013047	0.043539	0.022062	0.018808	0.073416
0.613499	0.701681	0.006220	0.016316	0.465610	0.013089	0.043627	0.022292	0.018962	0.073683
0.611856	0.704893	0.006273	0.016424	0.469877	0.013136	0.043682	0.022509	0.019105	0.073918
0.610080	0.707442	0.006330	0.016530	0.474506	0.013188	0.043704	0.022712	0.019237	0.074118
0.608169	0.709364	0.006389	0.016637	0.479526	0.013243	0.043695	0.022903	0.019359	0.074282
0.606125	0.710689	0.006452	0.016743	0.484965	0.013303	0.043654	0.023083	0.019473	0.074411
0.603954	0.711451	0.006518	0.016849	0.490853	0.013367	0.043584	0.023253	0.019579	0.074506
0.601668	0.711692	0.006587	0.016955	0.497214	0.013434	0.043487	0.023416	0.019679	0.074569
0.599283	0.711464	0.006659	0.017061	0.504072	0.013504	0.043363	0.023571	0.019775	0.074606
0.596823	0.710829	0.006735	0.017168	0.511444	0.013577	0.043214	0.023720	0.019869	0.074622
0.594314	0.709849	0.006814	0.017274	0.519340	0.013651	0.043040	0.023865	0.019964	0.074620
0.591786	0.708585	0.006896	0.017379	0.527767	0.013725	0.042842	0.024008	0.020062	0.074607
0.589268	0.707092	0.006980	0.017483	0.536728	0.013800	0.042619	0.024151	0.020165	0.074587
0.586790	0.705415	0.007068	0.017586	0.546224	0.013874	0.042372	0.024295	0.020277	0.074565
0.584376	0.703590	0.007158	0.017687	0.556252	0.013945	0.042101	0.024444	0.020398	0.074547
0.582048	0.701645	0.007250	0.017786	0.566814	0.014014	0.041807	0.024598	0.020532	0.074535
0.579820	0.699606	0.007344	0.017883	0.577911	0.014078	0.041490	0.024760	0.020678	0.074532
0.577704	0.697491	0.007439	0.017976	0.589545	0.014136	0.041150	0.024931	0.020839	0.074541
0.575711	0.695325	0.007536	0.018066	0.601713	0.014188	0.040790	0.025112	0.021017	0.074564
0.573849	0.693130	0.007633	0.018152	0.614408	0.014231	0.040410	0.025305	0.021210	0.074602
0.572127	0.690928	0.007730	0.018236	0.627618	0.014264	0.040013	0.025510	0.021422	0.074657
0.570548	0.688735	0.007827	0.018316	0.641327	0.014289	0.039600	0.025728	0.021652	0.074732
0.569112	0.686563	0.007922	0.018394	0.655511	0.014303	0.039174	0.025959	0.021900	0.074826
0.567810	0.684414	0.008015	0.018469	0.670137	0.014308	0.038739	0.026202	0.022166	0.074941
0.566631	0.682284	0.008106	0.018540	0.685166	0.014304	0.038295	0.026458	0.022451	0.075079
0.565556	0.680165	0.008194	0.018608	0.700550	0.014292	0.037847	0.026726	0.022754	0.075241
0.564568	0.678046	0.008278	0.018672	0.716236	0.014272	0.037397	0.027004	0.023074	0.075427
0.563647	0.675919	0.008358	0.018731	0.732166	0.014246	0.036947	0.027291	0.023410	0.075640
0.562772	0.673772	0.008433	0.018786	0.748278	0.014212	0.036500	0.027586	0.023762	0.075880
0.561920	0.671591	0.008505	0.018836	0.764503	0.014173	0.036057	0.027887	0.024127	0.076147
0.561066	0.669354	0.008572	0.018882	0.780765	0.014129	0.035621	0.028190	0.024504	0.076440
0.560179	0.667033	0.008635	0.018925	0.796975	0.014080	0.035193	0.028494	0.024890	0.076759
0.559221	0.664592	0.008695	0.018964	0.813041	0.014028	0.034773	0.028794	0.025283	0.077103
0.558156	0.661989	0.008752	0.019002	0.828862	0.013974	0.034363	0.029089	0.025681	0.077471
0.556947	0.659183	0.008806	0.019038	0.844336	0.013918	0.033962	0.029373	0.026080	0.077861
0.555561	0.656132	0.008857	0.019074	0.859358	0.013864	0.033572	0.029644	0.026477	0.078270
0.553972	0.652806	0.008906	0.019110	0.873820	0.013812	0.033193	0.029896	0.026869	0.078695
0.552163	0.649187	0.008952	0.019146	0.887616	0.013765	0.032825	0.030128	0.027254	0.079134
0.550124	0.645272	0.008996	0.019183	0.900650	0.013723	0.032471	0.030337	0.027629	0.079582
0.547854	0.641073	0.009038	0.019220	0.912841	0.013690	0.032131	0.030520	0.027992	0.080039
0.545356	0.636615	0.009078	0.019258	0.924119	0.013667	0.031807	0.030677	0.028341	0.080500
0.542638	0.631930	0.009117	0.019296	0.934418	0.013654	0.031500	0.030807	0.028676	0.080963
0.539705	0.627051	0.009154	0.019334	0.943680	0.013654	0.031213	0.030912	0.028995	0.081423
0.536558	0.622008	0.009191	0.019371	0.951864	0.013669	0.030946	0.030991	0.029299	0.081876
0.533193	0.616822	0.009227	0.019408	0.958949	0.013699	0.030702	0.031044	0.029586	0.082316
0.529606	0.611507	0.009264	0.019443	0.964933	0.013748	0.030482	0.031071	0.029855	0.082737
0.525790	0.606069	0.009300	0.019478	0.969820	0.013815	0.030288	0.031072	0.030106	0.083136
0.521741	0.600509	0.009337	0.019512	0.973625	0.013902	0.030122	0.031049	0.030338	0.083509
0.517458	0.594823	0.009375	0.019545	0.976376	0.014011	0.029985	0.031001	0.030551	0.083851
0.512939	0.589000	0.009414	0.019578	0.978117	0.014144	0.029879	0.030931	0.030745	0.084164
0.508185	0.583023	0.009454	0.019610	0.978897	0.014302	0.029806	0.030839	0.030920	0.084444
0.503197	0.576881	0.009496	0.019643	0.978762	0.014485	0.029768	0.030726	0.031077	0.084695
0.497967	0.570569	0.009539	0.019676	0.977756	0.014695	0.029766	0.030596	0.031219	0.084918
0.492487	0.564097	0.009583	0.019710	0.975925	0.014933	0.029801	0.030448	0.031345	0.085116
0.486741	0.557494	0.009629	0.019746	0.973318	0.015201	0.029875	0.030284	0.031457	0.085293
0.480710	0.550804	0.009676	0.019784	0.969982	0.015497	0.029988	0.030106	0.031557	0.085451
0.474372	0.544086	0.009723	0.019825	0.965964	0.015824	0.030141	0.029916	0.031645	0.085591
0.467700	0.537411	0.009772	0.019870	0.961301	0.016181	0.030334	0.029713	0.031723	0.085716
0.460666	0.530850	0.009822	0.019919	0.956023	0.016569	0.030569	0.029499	0.031789	0.085824
0.453244	0.524476	0.009871	0.019974	0.950155	0.016989	0.030843	0.029275	0.031845	0.085916
0.445415	0.518357	0.009921	0.020036	0.943717	0.017443	0.031158	0.029043	0.031889	0.085991
0.437171	0.512557	0.009970	0.020106	0.936732	0.017930	0.031513	0.028802	0.031921	0.086048
0.428515	0.507138	0.010019	0.020185	0.929219	0.018452	0.031906	0.028553	0.031940	0.086086
0.419456	0.502159	0.010067	0.020275	0.921201	0.019010	0.032339	0.028296	0.031944	0.086104
0.410008	0.497680	0.010113	0.020375	0.912704	0.019604	0.032809	0.028031	0.031931	0.086101
0.400188	0.493760	0.010158	0.020486	0.903763	0.020234	0.033318	0.027757	0.031900	0.086074
0.390007	0.490458	0.010201	0.020608	0.894416	0.020901	0.033867	0.027475	0.031849	0.086023
0.379486	0.487829	0.010242	0.020741	0.884702	0.021604	0.034454	0.027183	0.031777	0.085946
0.368646	0.485926	0.010282	0.020884	0.874661	0.022343	0.035082	0.026883	0.031683	0.085844
0.357523	0.484800	0.010319	0.021038	0.864345	0.023117	0.035752	0.026575	0.031568	0.085715
0.346161	0.484493	0.010355	0.021201	0.853814	0.023924	0.036463	0.026259	0.031432	0.085561
0.334610	0.485044	0.010390	0.021375	0.843140	0.024765	0.037217	0.025936	0.031275	0.085383
0.322923	0.486482	0.010422	0.021558	0.832405	0.025637	0.038014	0.025609	0.031098	0.085182
0.311153	0.488833	0.010452	0.021752	0.821698	0.026539	0.038855	0.025278	0.030902	0.084957
0.299348	0.492116	0.010479	0.021956	0.811109	0.027470	0.039739	0.024943	0.030687	0.084710
0.287553	0.496348	0.010504	0.022171	0.800723	0.028429	0.040667	0.024607	0.030454	0.084437
0.275810	0.501544	0.010526	0.022397	0.790620	0.029414	0.041640	0.024270	0.030204	0.084140
0.264156	0.507718	0.010545	0.022633	0.780873	0.030426	0.042658	0.023931	0.029937	0.083816
0.252627	0.514879	0.010560	0.022880	0.771545	0.031464	0.043721	0.023593	0.029653	0.083465
0.241253	0.523034	0.010572	0.023135	0.762688	0.032528	0.044829	0.023256	0.029354	0.083088
0.230061	0.532189	0.010582	0.023399	0.754351	0.033615	0.045981	0.022918	0.029040	0.082684
0.219074	0.542347	0.010590	0.023669	0.746576	0.034726	0.047176	0.022581	0.028713	0.082256
0.208314	0.553507	0.010596	0.023945	0.739400	0.035858	0.048412	0.022245	0.028373	0.081804
0.197798	0.565668	0.010602	0.024226	0.732852	0.037010	0.049687	0.021910	0.028023	0.081331
0.187538	0.578823	0.010607	0.024508	0.726955	0.038179	0.050998	0.021576	0.027662	0.080839
0.177547	0.592958	0.010612	0.024792	0.721726	0.039363	0.052342	0.021243	0.027294	0.080331
0.167835	0.608054	0.010618	0.025073	0.717168	0.040562	0.053713	0.020911	0.026920	0.079811
0.158409	0.624084	0.010624	0.025351	0.713277	0.041772	0.055108	0.020581	0.026540	0.079280
0.149274	0.641009	0.010631	0.025624	0.710042	0.042994	0.056519	0.020253	0.026158	0.078740
0.140436	0.658786	0.010638	0.025888	0.707437	0.044225	0.057942	0.019927	0.025773	0.078192
0.131898	0.677359	0.010647	0.026142	0.705430	0.045465	0.059369	0.019603	0.025386	0.077635
0.123661	0.696668	0.010657	0.026383	0.703977	0.046710	0.060794	0.019281	0.024998	0.077070
0.115727	0.716640	0.010668	0.026610	0.703027	0.047959	0.062208	0.018961	0.024610	0.076493
0.108095	0.737198	0.010681	0.026819	0.702525	0.049210	0.063603	0.018644	0.024221	0.075902
0.100766	0.758252	0.010695	0.027011	0.702418	0.050462	0.064972	0.018328	0.023833	0.075296
0.093737	0.779704	0.010711	0.027183	0.702659	0.051713	0.066307	0.018015	0.023445	0.074672
0.087007	0.801445	0.010728	0.027335	0.703213	0.052964	0.067600	0.017704	0.023060	0.074029
0.080573	0.823364	0.010747	0.027467	0.704045	0.054214	0.068844	0.017398	0.022679	0.073369
0.074431	0.845346	0.010768	0.027580	0.705127	0.055466	0.070032	0.017096	0.022303	0.072691
0.068578	0.867285	0.010789	0.027672	0.706433	0.056723	0.071158	0.016800	0.021936	0.072000
0.063011	0.889083	0.010811	0.027746	0.707941	0.057986	0.072218	0.016511	0.021577	0.071298
0.057725	0.910652	0.010834	0.027801	0.709631	0.059261	0.073208	0.016231	0.021231	0.070590
0.052715	0.931915	0.010857	0.027837	0.711479	0.060551	0.074124	0.015961	0.020897	0.069880
0.047975	0.952801	0.010879	0.027855	0.713454	0.061858	0.074962	0.015701	0.020579	0.069172
0.043501	0.973239	0.010900	0.027854	0.715521	0.063186	0.075718	0.015454	0.020277	0.068470
0.039285	0.993156	0.010921	0.027836	0.717636	0.064537	0.076388	0.015220	0.019992	0.067776
0.035320	1.012473	0.010941	0.027802	0.719750	0.065913	0.076969	0.015000	0.019728	0.067091
0.031599	1.031110	0.010960	0.027753	0.721807	0.067319	0.077459	0.014794	0.019484	0.066419
0.028115	1.049002	0.010977	0.027692	0.723745	0.068757	0.077858	0.014604	0.019262	0.065759
0.024859	1.066100	0.010994	0.027620	0.725505	0.070233	0.078166	0.014430	0.019062	0.065113
0.021822	1.082378	0.011010	0.027540	0.727039	0.071750	0.078385	0.014272	0.018886	0.064480
0.018997	1.097829	0.011025	0.027455	0.728315	0.073312	0.078515	0.014129	0.018735	0.063861
0.016373	1.112458	0.011037	0.027367	0.729319	0.074923	0.078560	0.014003	0.018607	0.063255
0.013943	1.126275	0.011047	0.027279	0.730046	0.076588	0.078520	0.013893	0.018504	0.062662
0.011698	1.139280	0.011054	0.027193	0.730493	0.078309	0.078397	0.013799	0.018425	0.062081
0.009629	1.151468	0.011057	0.027111	0.730665	0.080093	0.078192	0.013720	0.018371	0.061514
0.007727	1.162830	0.011056	0.027034	0.730579	0.081940	0.077906	0.013657	0.018340	0.060960
0.005984	1.173361	0.011052	0.026966	0.730264	0.083855	0.077540	0.013608	0.018333	0.060422
0.004391	1.183064	0.011044	0.026908	0.729756	0.085840	0.077097	0.013573	0.018348	0.059899
0.002941	1.191952	0.011032	0.026863	0.729097	0.087895	0.076578	0.013551	0.018384	0.059395
0.001625	1.200048	0.011018	0.026833	0.728327	0.090023	0.075987	0.013542	0.018442	0.058910
0.000435	1.207378	0.011001	0.026820	0.727482	0.092225	0.075329	0.013544	0.018520	0.058446
-0.000636	1.213968	0.010983	0.026825	0.726592	0.094502	0.074608	0.013556	0.018616	0.058003
-0.001594	1.219837	0.010964	0.026850	0.725686	0.096857	0.073826	0.013577	0.018730	0.057584
-0.002448	1.224990	0.010944	0.026896	0.724796	0.099291	0.072985	0.013606	0.018860	0.057190
-0.003202	1.229424	0.010926	0.026963	0.723960	0.101805	0.072089	0.013642	0.019004	0.056822
-0.003864	1.233136	0.010907	0.027052	0.723215	0.104402	0.071139	0.013683	0.019162	0.056479
-0.004439	1.236125	0.010890	0.027163	0.722598	0.107082	0.070137	0.013729	0.019332	0.056163
-0.004933	1.238402	0.010875	0.027295	0.722136	0.109844	0.069087	0.013777	0.019513	0.055871
-0.005352	1.239989	0.010861	0.027450	0.721856	0.112688	0.067994	0.013827	0.019703	0.055604
-0.005701	1.240911	0.010850	0.027627	0.721782	0.115610	0.066861	0.013879	0.019900	0.055357
-0.005985	1.241193	0.010841	0.027824	0.721943	0.118607	0.065694	0.013931	0.020104	0.055130
-0.006211	1.240853	0.010836	0.028043	0.722374	0.121673	0.064498	0.013983	0.020313	0.054920
-0.006382	1.239904	0.010835	0.028281	0.723109	0.124802	0.063275	0.014035	0.020523	0.054725
-0.006503	1.238361	0.010839	0.028539	0.724180	0.127988	0.062031	0.014085	0.020735	0.054542
-0.006579	1.236249	0.010849	0.028814	0.725609	0.131226	0.060769	0.014134	0.020944	0.054370
-0.006613	1.233608	0.010865	0.029108	0.727410	0.134509	0.059492	0.014180	0.021151	0.054209
-0.006611	1.230487	0.010888	0.029418	0.729589	0.137832	0.058204	0.014225	0.021354	0.054058
-0.006576	1.226934	0.010919	0.029744	0.732150	0.141188	0.056911	0.014267	0.021552	0.053919
-0.006511	1.222991	0.010958	0.030085	0.735097	0.144571	0.055617	0.014309	0.021746	0.053793
-0.006420	1.218687	0.011004	0.030441	0.738437	0.147974	0.054329	0.014351	0.021935	0.053683
-0.006306	1.214044	0.011058	0.030810	0.742180	0.151388	0.053054	0.014394	0.022120	0.053591
-0.006172	1.209081	0.011120	0.031191	0.746337	0.154802	0.051797	0.014439	0.022301	0.053520
-0.006021	1.203821	0.011190	0.031583	0.750918	0.158205	0.050563	0.014487	0.022477	0.053471
-0.005855	1.198298	0.011267	0.031983	0.755931	0.161582	0.049358	0.014538	0.022647	0.053446
-0.005677	1.192551	0.011350	0.032389	0.761377	0.164921	0.048186	0.014592	0.022812	0.053446
-0.005490	1.186627	0.011440	0.032800	0.767249	0.168206	0.047050	0.014650	0.022970	0.053472
-0.005294	1.180576	0.011536	0.033214	0.773534	0.171422	0.045953	0.014712	0.023121	0.053526
-0.005091	1.174441	0.011637	0.033628	0.780212	0.174551	0.044899	0.014778	0.023263	0.053608
-0.004884	1.168256	0.011743	0.034041	0.787259	0.177573	0.043888	0.014848	0.023396	0.053721
-0.004673	1.162043	0.011854	0.034452	0.794642	0.180468	0.042923	0.014921	0.023520	0.053865
-0.004458	1.155814	0.011970	0.034859	0.802323	0.183212	0.042005	0.014999	0.023636	0.054040
-0.004242	1.149579	0.012089	0.035260	0.810253	0.185783	0.041134	0.015080	0.023743	0.054248
-0.004024	1.143346	0.012212	0.035655	0.818377	0.188158	0.040310	0.015165	0.023843	0.054488
-0.003806	1.137132	0.012337	0.036040	0.826630	0.190320	0.039534	0.015253	0.023935	0.054760
-0.003587	1.130964	0.012464	0.036416	0.834945	0.192252	0.038802	0.015346	0.024021	0.055063
-0.003368	1.124880	0.012591	0.036778	0.843252	0.193944	0.038115	0.015442	0.024100	0.055396
-0.003149	1.118931	0.012718	0.037125	0.851489	0.195388	0.037470	0.015542	0.024171	0.055755
-0.002930	1.113173	0.012844	0.037454	0.859606	0.196582	0.036865	0.015644	0.024235	0.056138
-0.002712	1.107661	0.012968	0.037761	0.867563	0.197521	0.036297	0.015750	0.024290	0.056542
-0.002494	1.102446	0.013089	0.038043	0.875322	0.198204	0.035762	0.015858	0.024338	0.056964
-0.002275	1.097567	0.013206	0.038296	0.882845	0.198626	0.035257	0.015968	0.024378	0.057400
-0.002055	1.093058	0.013319	0.038518	0.890092	0.198783	0.034781	0.016080	0.024410	0.057847
-0.001833	1.088947	0.013427	0.038705	0.897029	0.198667	0.034329	0.016193	0.024435	0.058302
-0.001608	1.085262	0.013531	0.038856	0.903620	0.198272	0.033900	0.016309	0.024454	0.058762
-0.001380	1.082029	0.013629	0.038969	0.909833	0.197594	0.033492	0.016425	0.024467	0.059224
-0.001148	1.079267	0.013723	0.039045	0.915643	0.196632	0.033102	0.016543	0.024476	0.059686
-0.000910	1.076986	0.013810	0.039083	0.921045	0.195390	0.032728	0.016661	0.024482	0.060143
-0.000666	1.075188	0.013891	0.039083	0.926050	0.193875	0.032366	0.016780	0.024485	0.060591
-0.000414	1.073866	0.013964	0.039044	0.930690	0.192099	0.032015	0.016898	0.024486	0.061025
-0.000154	1.073009	0.014030	0.038968	0.935003	0.190079	0.031670	0.017015	0.024484	0.061443
0.000117	1.072599	0.014088	0.038853	0.939031	0.187831	0.031329	0.017130	0.024481	0.061840
0.000398	1.072606	0.014136	0.038699	0.942828	0.185374	0.030990	0.017241	0.024477	0.062216
0.000693	1.072999	0.014175	0.038504	0.946462	0.182727	0.030649	0.017348	0.024471	0.062569
0.001003	1.073746	0.014203	0.038269	0.950012	0.179904	0.030305	0.017449	0.024463	0.062902
0.001330	1.074816	0.014221	0.037993	0.953565	0.176922	0.029957	0.017543	0.024454	0.063215
0.001677	1.076186	0.014229	0.037677	0.957201	0.173794	0.029605	0.017627	0.024443	0.063509
0.002044	1.077839	0.014227	0.037322	0.960989	0.170537	0.029246	0.017701	0.024430	0.063786
0.002434	1.079766	0.014216	0.036928	0.964989	0.167169	0.028882	0.017764	0.024413	0.064048
0.002849	1.081967	0.014196	0.036498	0.969248	0.163710	0.028511	0.017812	0.024392	0.064294
0.003292	1.084441	0.014169	0.036035	0.973797	0.160178	0.028134	0.017846	0.024366	0.064524
0.003764	1.087186	0.014136	0.035540	0.978658	0.156595	0.027750	0.017863	0.024335	0.064738
0.004268	1.090188	0.014097	0.035018	0.983836	0.152978	0.027359	0.017864	0.024298	0.064935
0.004806	1.093419	0.014054	0.034470	0.989323	0.149346	0.026961	0.017849	0.024256	0.065112
0.005381	1.096838	0.014007	0.033900	0.995099	0.145713	0.026554	0.017817	0.024209	0.065266
0.005994	1.100395	0.013956	0.033309	1.001136	0.142096	0.026141	0.017769	0.024156	0.065394
0.006649	1.104028	0.013902	0.032701	1.007393	0.138508	0.025721	0.017706	0.024098	0.065492
0.007347	1.107670	0.013845	0.032076	1.013822	0.134962	0.025295	0.017628	0.024035	0.065556
0.008092	1.111251	0.013787	0.031436	1.020363	0.131467	0.024864	0.017535	0.023967	0.065584
0.008885	1.114700	0.013727	0.030783	1.026952	0.128034	0.024430	0.017428	0.023894	0.065575
0.009728	1.117955	0.013666	0.030119	1.033526	0.124670	0.023992	0.017309	0.023816	0.065527
0.010623	1.120968	0.013607	0.029444	1.040023	0.121382	0.023552	0.017176	0.023733	0.065441
0.011573	1.123709	0.013549	0.028760	1.046379	0.118173	0.023111	0.017032	0.023646	0.065318
0.012580	1.126168	0.013496	0.028070	1.052525	0.115046	0.022669	0.016877	0.023556	0.065159
0.013645	1.128347	0.013448	0.027377	1.058390	0.112003	0.022228	0.016714	0.023464	0.064965
0.014770	1.130257	0.013407	0.026682	1.063901	0.109042	0.021787	0.016545	0.023372	0.064737
0.015957	1.131903	0.013377	0.025989	1.068982	0.106162	0.021346	0.016370	0.023282	0.064478
0.017207	1.133290	0.013357	0.025301	1.073559	0.103359	0.020908	0.016191	0.023195	0.064189
0.018522	1.134421	0.013351	0.024622	1.077562	0.100631	0.020471	0.016011	0.023113	0.063872
0.019903	1.135307	0.013360	0.023954	1.080925	0.097972	0.020037	0.015831	0.023038	0.063529
0.021352	1.135963	0.013385	0.023299	1.083581	0.095377	0.019605	0.015652	0.022971	0.063162
0.022871	1.136399	0.013428	0.022660	1.085455	0.092840	0.019178	0.015474	0.022914	0.062772
0.024461	1.136620	0.013489	0.022040	1.086472	0.090355	0.018755	0.015299	0.022866	0.062363
0.026121	1.136620	0.013571	0.021441	1.086555	0.087917	0.018338	0.015129	0.022830	0.061936
0.027854	1.136386	0.013673	0.020863	1.085629	0.085519	0.017927	0.014963	0.022806	0.061497
0.029660	1.135895	0.013798	0.020309	1.083622	0.083155	0.017523	0.014802	0.022794	0.061050
0.031538	1.135130	0.013945	0.019781	1.080477	0.080819	0.017127	0.014647	0.022794	0.060600
0.033489	1.134079	0.014117	0.019279	1.076153	0.078504	0.016739	0.014499	0.022808	0.060149
0.035513	1.132737	0.014314	0.018804	1.070623	0.076207	0.016360	0.014357	0.022833	0.059701
0.037610	1.131108	0.014536	0.018359	1.063867	0.073925	0.015990	0.014222	0.022871	0.059259
0.039778	1.129191	0.014786	0.017945	1.055864	0.071658	0.015630	0.014095	0.022919	0.058826
0.042016	1.126981	0.015064	0.017561	1.046597	0.069406	0.015279	0.013974	0.022978	0.058403
0.044324	1.124466	0.015370	0.017209	1.036062	0.067169	0.014939	0.013861	0.023047	0.057991
0.046698	1.121639	0.015705	0.016889	1.024289	0.064952	0.014610	0.013756	0.023123	0.057592
0.049136	1.118497	0.016069	0.016602	1.011342	0.062756	0.014293	0.013658	0.023207	0.057205
0.051633	1.115044	0.016462	0.016349	0.997312	0.060587	0.013988	0.013567	0.023296	0.056829
0.054186	1.111283	0.016883	0.016130	0.982301	0.058448	0.013694	0.013484	0.023389	0.056464
0.056789	1.107218	0.017333	0.015944	0.966420	0.056344	0.013414	0.013407	0.023485	0.056109
0.059437	1.102844	0.017811	0.015791	0.949791	0.054277	0.013146	0.013336	0.023582	0.055764
0.062122	1.098152	0.018315	0.015672	0.932543	0.052250	0.012891	0.013270	0.023678	0.055427
0.064837	1.093131	0.018845	0.015584	0.914810	0.050266	0.012649	0.013208	0.023773	0.055097
0.067575	1.087774	0.019401	0.015529	0.896723	0.048326	0.012420	0.013149	0.023866	0.054776
0.070326	1.082078	0.019981	0.015505	0.878401	0.046431	0.012204	0.013093	0.023954	0.054461
0.073082	1.076045	0.020584	0.015512	0.859954	0.044584	0.012002	0.013040	0.024040	0.054155
0.075832	1.069673	0.021210	0.015550	0.841482	0.042786	0.011813	0.012988	0.024122	0.053857
0.078568	1.062953	0.021856	0.015617	0.823076	0.041037	0.011637	0.012938	0.024200	0.053569
0.081279	1.055870	0.022523	0.015715	0.804824	0.039340	0.011474	0.012890	0.024276	0.053290
0.083953	1.048405	0.023209	0.015844	0.786806	0.037696	0.011324	0.012845	0.024349	0.053022
0.086579	1.040550	0.023912	0.016005	0.769098	0.036106	0.011185	0.012801	0.024419	0.052764
0.089145	1.032306	0.024630	0.016200	0.751768	0.034571	0.011058	0.012759	0.024486	0.052517
0.091639	1.023692	0.025363	0.016429	0.734877	0.033092	0.010941	0.012720	0.024550	0.052279
0.094047	1.014744	0.026107	0.016694	0.718475	0.031668	0.010835	0.012681	0.024610	0.052052
0.096357	1.005510	0.026861	0.016998	0.702608	0.030301	0.010738	0.012644	0.024667	0.051836
0.098556	0.996049	0.027624	0.017340	0.687311	0.028989	0.010650	0.012607	0.024720	0.051632
0.100630	0.986424	0.028394	0.017722	0.672614	0.027733	0.010572	0.012570	0.024768	0.051439
0.102568	0.976691	0.029170	0.018146	0.658540	0.026532	0.010501	0.012533	0.024813	0.051260
0.104360	0.966902	0.029952	0.018611	0.645102	0.025385	0.010439	0.012495	0.024854	0.051096
0.106002	0.957094	0.030738	0.019120	0.632311	0.024293	0.010384	0.012454	0.024891	0.050948
0.107491	0.947299	0.031529	0.019671	0.620173	0.023253	0.010337	0.012411	0.024926	0.050819
0.108827	0.937538	0.032323	0.020267	0.608691	0.022265	0.010295	0.012366	0.024958	0.050708
0.110015	0.927824	0.033120	0.020907	0.597870	0.021328	0.010260	0.012317	0.024989	0.050618
0.111058	0.918156	0.033919	0.021594	0.587707	0.020442	0.010231	0.012265	0.025019	0.050549
0.111965	0.908525	0.034722	0.022328	0.578194	0.019606	0.010209	0.012210	0.025050	0.050501
0.112739	0.898906	0.035527	0.023112	0.569321	0.018819	0.010194	0.012152	0.025082	0.050475
0.113384	0.889269	0.036333	0.023947	0.561072	0.018081	0.010186	0.012090	0.025114	0.050470
0.113903	0.879582	0.037140	0.024837	0.553431	0.017390	0.010186	0.012024	0.025146	0.050484
0.114300	0.869814	0.037946	0.025784	0.546379	0.016746	0.010194	0.011954	0.025178	0.050517
0.114579	0.859933	0.038750	0.026789	0.539893	0.016147	0.010211	0.011879	0.025209	0.050565
0.114745	0.849910	0.039549	0.027856	0.533947	0.015592	0.010238	0.011799	0.025238	0.050628
0.114805	0.839721	0.040343	0.028984	0.528516	0.015080	0.010276	0.011712	0.025262	0.050703
0.114768	0.829349	0.041129	0.030177	0.523573	0.014611	0.010324	0.011619	0.025282	0.050787
0.114644	0.818787	0.041907	0.031435	0.519092	0.014185	0.010384	0.011518	0.025296	0.050880
0.114444	0.808035	0.042675	0.032759	0.515043	0.013802	0.010456	0.011409	0.025303	0.050978
0.114177	0.797101	0.043434	0.034148	0.511393	0.013465	0.010540	0.011292	0.025303	0.051079
0.113852	0.785986	0.044184	0.035603	0.508102	0.013173	0.010638	0.011166	0.025294	0.051181
0.113476	0.774691	0.044924	0.037123	0.505127	0.012929	0.010750	0.011031	0.025276	0.051281
0.113057	0.763213	0.045657	0.038708	0.502417	0.012734	0.010876	0.010887	0.025248	0.051375
0.112599	0.751555	0.046382	0.040356	0.499919	0.012590	0.011018	0.010734	0.025208	0.051460
0.112107	0.739724	0.047101	0.042065	0.497571	0.012499	0.011176	0.010572	0.025157	0.051533
0.111586	0.727738	0.047816	0.043834	0.495308	0.012463	0.011350	0.010402	0.025092	0.051588
0.111040	0.715619	0.048527	0.045661	0.493061	0.012486	0.011542	0.010223	0.025014	0.051624
0.110474	0.703390	0.049235	0.047541	0.490754	0.012569	0.011751	0.010036	0.024921	0.051639
0.109889	0.691074	0.049942	0.049472	0.488306	0.012715	0.011980	0.009841	0.024813	0.051632
0.109291	0.678695	0.050645	0.051451	0.485633	0.012926	0.012230	0.009640	0.024690	0.051603
0.108681	0.666272	0.051346	0.053472	0.482645	0.013205	0.012501	0.009433	0.024552	0.051551
0.108062	0.653822	0.052042	0.055533	0.479250	0.013553	0.012795	0.009220	0.024399	0.051478
0.107436	0.641356	0.052732	0.057629	0.475352	0.013973	0.013114	0.009003	0.024231	0.051383
0.106803	0.628880	0.053414	0.059756	0.470864	0.014466	0.013459	0.008781	0.024047	0.051265
0.106162	0.616395	0.054086	0.061910	0.465712	0.015035	0.013832	0.008556	0.023847	0.051124
0.105513	0.603901	0.054745	0.064085	0.459848	0.015680	0.014234	0.008329	0.023631	0.050960
0.104855	0.591401	0.055391	0.066276	0.453240	0.016403	0.014668	0.008102	0.023402	0.050772
0.104187	0.578901	0.056021	0.068477	0.445875	0.017206	0.015136	0.007877	0.023160	0.050562
0.103507	0.566411	0.056634	0.070678	0.437755	0.018089	0.015639	0.007657	0.022908	0.050331
0.102816	0.553945	0.057230	0.072873	0.428913	0.019054	0.016181	0.007445	0.022647	0.050082
0.102114	0.541513	0.057809	0.075053	0.419403	0.020103	0.016765	0.007242	0.022379	0.049815
0.101403	0.529124	0.058370	0.077212	0.409293	0.021236	0.017391	0.007053	0.022108	0.049532
0.100683	0.516784	0.058914	0.079342	0.398652	0.022455	0.018064	0.006879	0.021833	0.049236
0.099952	0.504492	0.059442	0.081438	0.387544	0.023760	0.018785	0.006724	0.021556	0.048926
0.099211	0.492244	0.059955	0.083495	0.376034	0.025152	0.019559	0.006590	0.021278	0.048604
0.098457	0.480037	0.060454	0.085512	0.364181	0.026632	0.020388	0.006480	0.021001	0.048271
0.097687	0.467873	0.060941	0.087486	0.352041	0.028200	0.021279	0.006396	0.020723	0.047927
0.096899	0.455754	0.061416	0.089417	0.339674	0.029858	0.022237	0.006341	0.020446	0.047574
0.096090	0.443688	0.061880	0.091302	0.327137	0.031605	0.023269	0.006318	0.020169	0.047213
0.095257	0.431689	0.062332	0.093142	0.314488	0.033443	0.024381	0.006330	0.019893	0.046844
0.094397	0.419771	0.062772	0.094935	0.301779	0.035373	0.025583	0.006380	0.019618	0.046469
0.093509	0.407950	0.063197	0.096678	0.289060	0.037394	0.026880	0.006470	0.019344	0.046087
0.092589	0.396243	0.063605	0.098368	0.276376	0.039508	0.028282	0.006606	0.019070	0.045698
0.091638	0.384663	0.063994	0.100001	0.263768	0.041717	0.029794	0.006789	0.018798	0.045302
0.090656	0.373219	0.064361	0.101571	0.251275	0.044019	0.031425	0.007025	0.018528	0.044898
0.089643	0.361918	0.064705	0.103074	0.238932	0.046417	0.033180	0.007317	0.018260	0.044485
0.088600	0.350762	0.065025	0.104507	0.226769	0.048910	0.035066	0.007670	0.017995	0.044064
0.087532	0.339750	0.065324	0.105865	0.214816	0.051500	0.037089	0.008086	0.017734	0.043634
0.086441	0.328883	0.065605	0.107146	0.203097	0.054186	0.039256	0.008572	0.017476	0.043196
0.085330	0.318162	0.065871	0.108348	0.191634	0.056969	0.041572	0.009129	0.017224	0.042749
0.084204	0.307587	0.066126	0.109469	0.180446	0.059850	0.044043	0.009762	0.016977	0.042291
0.083065	0.297161	0.066376	0.110510	0.169550	0.062827	0.046675	0.010475	0.016736	0.041822
0.081917	0.286887	0.066625	0.111470	0.158961	0.065902	0.049474	0.011271	0.016501	0.041338
0.080761	0.276772	0.066875	0.112351	0.148691	0.069076	0.052444	0.012154	0.016272	0.040840
0.079600	0.266826	0.067129	0.113156	0.138749	0.072348	0.055591	0.013127	0.016049	0.040323
0.078439	0.257058	0.067391	0.113888	0.129146	0.075719	0.058916	0.014194	0.015832	0.039786
0.077282	0.247481	0.067663	0.114550	0.119887	0.079187	0.062425	0.015358	0.015621	0.039227
0.076135	0.238108	0.067947	0.115147	0.110977	0.082755	0.066118	0.016621	0.015414	0.038646
0.075003	0.228952	0.068248	0.115680	0.102421	0.086424	0.069997	0.017988	0.015214	0.038042
0.073894	0.220023	0.068565	0.116152	0.094219	0.090198	0.074062	0.019460	0.015018	0.037420
0.072813	0.211332	0.068903	0.116563	0.086374	0.094078	0.078313	0.021041	0.014828	0.036782
0.071765	0.202884	0.069262	0.116912	0.078883	0.098070	0.082748	0.022732	0.014644	0.036130
0.070756	0.194683	0.069643	0.117198	0.071745	0.102175	0.087367	0.024537	0.014465	0.035467
0.069788	0.186731	0.070046	0.117421	0.064957	0.106396	0.092166	0.026456	0.014293	0.034797
0.068866	0.179029	0.070470	0.117581	0.058514	0.110734	0.097144	0.028492	0.014125	0.034120
0.067993	0.171578	0.070914	0.117680	0.052411	0.115190	0.102295	0.030647	0.013963	0.033440
0.067171	0.164377	0.071373	0.117719	0.046643	0.119761	0.107616	0.032921	0.013806	0.032756
0.066401	0.157427	0.071845	0.117704	0.041203	0.124449	0.113100	0.035318	0.013652	0.032072
0.065684	0.150729	0.072326	0.117637	0.036083	0.129253	0.118739	0.037837	0.013502	0.031389
0.065021	0.144282	0.072810	0.117523	0.031276	0.134170	0.124524	0.040481	0.013356	0.030707
0.064415	0.138087	0.073293	0.117366	0.026772	0.139199	0.130445	0.043250	0.013213	0.030030
0.063864	0.132143	0.073770	0.117171	0.022563	0.144341	0.136489	0.046146	0.013072	0.029358
0.063373	0.126451	0.074237	0.116944	0.018640	0.149595	0.142643	0.049170	0.012934	0.028695
0.062941	0.121012	0.074690	0.116689	0.014992	0.154963	0.148891	0.052320	0.012798	0.028042
0.062570	0.115825	0.075126	0.116411	0.011611	0.160447	0.155215	0.055597	0.012663	0.027401
0.062260	0.110891	0.075540	0.116115	0.008486	0.166049	0.161598	0.058999	0.012529	0.026773
0.062012	0.106210	0.075928	0.115804	0.005606	0.171771	0.168018	0.062525	0.012396	0.026162
0.061824	0.101780	0.076285	0.115481	0.002961	0.177611	0.174454	0.066176	0.012264	0.025568
0.061695	0.097598	0.076607	0.115148	0.000541	0.183569	0.180881	0.069948	0.012133	0.024992
0.061625	0.093662	0.076890	0.114807	-0.001665	0.189640	0.187275	0.073842	0.012002	0.024438
0.061612	0.089967	0.077131	0.114459	-0.003667	0.195817	0.193611	0.077855	0.011872	0.023905
0.061655	0.086509	0.077329	0.114104	-0.005474	0.202093	0.199866	0.081989	0.011742	0.023395
0.061755	0.083285	0.077482	0.113744	-0.007097	0.208458	0.206018	0.086240	0.011613	0.022908
0.061909	0.080288	0.077592	0.113381	-0.008544	0.214897	0.212049	0.090610	0.011484	0.022445
0.062118	0.077515	0.077656	0.113016	-0.009824	0.221398	0.217940	0.095095	0.011355	0.022006
0.062378	0.074957	0.077676	0.112652	-0.010946	0.227946	0.223673	0.099692	0.011226	0.021592
0.062687	0.072609	0.077650	0.112289	-0.011918	0.234526	0.229229	0.104398	0.011096	0.021201
0.063043	0.070465	0.077577	0.111929	-0.012747	0.241120	0.234590	0.109206	0.010967	0.020834
0.063441	0.068518	0.077456	0.111571	-0.013442	0.247711	0.239742	0.114110	0.010839	0.020489
0.063878	0.066762	0.077288	0.111216	-0.014009	0.254275	0.244679	0.119104	0.010712	0.020166
0.064348	0.065192	0.077072	0.110863	-0.014456	0.260790	0.249398	0.124178	0.010585	0.019863
0.064846	0.063802	0.076806	0.110510	-0.014789	0.267229	0.253902	0.129325	0.010460	0.019580
0.065366	0.062583	0.076492	0.110155	-0.015015	0.273565	0.258191	0.134533	0.010336	0.019315
0.065901	0.061529	0.076126	0.109795	-0.015140	0.279766	0.262268	0.139791	0.010214	0.019067
0.066444	0.060632	0.075709	0.109426	-0.015170	0.285803	0.266136	0.145084	0.010094	0.018837
0.066989	0.059885	0.075244	0.109048	-0.015111	0.291646	0.269798	0.150399	0.009975	0.018622
0.067527	0.059278	0.074731	0.108661	-0.014968	0.297274	0.273254	0.155723	0.009859	0.018422
0.068052	0.058804	0.074176	0.108264	-0.014746	0.302672	0.276505	0.161047	0.009744	0.018237
0.068558	0.058453	0.073583	0.107861	-0.014450	0.307827	0.279547	0.166365	0.009632	0.018065
0.069041	0.058216	0.072958	0.107451	-0.014084	0.312729	0.282375	0.171672	0.009522	0.017906
0.069497	0.058084	0.072306	0.107035	-0.013653	0.317363	0.284987	0.176964	0.009415	0.017759
0.069926	0.058047	0.071632	0.106611	-0.013160	0.321715	0.287381	0.182235	0.009309	0.017623
0.070327	0.058093	0.070942	0.106177	-0.012609	0.325772	0.289558	0.187481	0.009206	0.017498
0.070699	0.058213	0.070240	0.105729	-0.012003	0.329520	0.291524	0.192698	0.009104	0.017384
0.071041	0.058394	0.069531	0.105265	-0.011345	0.332950	0.293284	0.197884	0.009004	0.017280
0.071352	0.058625	0.068822	0.104781	-0.010638	0.336051	0.294844	0.203040	0.008906	0.017184
0.071629	0.058895	0.068115	0.104277	-0.009884	0.338814	0.296208	0.208167	0.008810	0.017096
0.071871	0.059193	0.067416	0.103752	-0.009085	0.341229	0.297384	0.213266	0.008716	0.017015
0.072075	0.059508	0.066729	0.103209	-0.008242	0.343292	0.298378	0.218337	0.008624	0.016939
0.072240	0.059828	0.066060	0.102648	-0.007359	0.345005	0.299201	0.223375	0.008535	0.016866
0.072370	0.060140	0.065412	0.102071	-0.006436	0.346375	0.299862	0.228376	0.008447	0.016797
0.072468	0.060436	0.064792	0.101480	-0.005474	0.347415	0.300368	0.233331	0.008360	0.016729
0.072544	0.060705	0.064205	0.100874	-0.004474	0.348143	0.300729	0.238229	0.008275	0.016663
0.072605	0.060941	0.063653	0.100254	-0.003438	0.348588	0.300951	0.243058	0.008192	0.016598
0.072662	0.061136	0.063141	0.099621	-0.002365	0.348792	0.301045	0.247801	0.008109	0.016535
0.072726	0.061286	0.062673	0.098974	-0.001257	0.348798	0.301025	0.252437	0.008029	0.016473
0.072806	0.061383	0.062250	0.098310	-0.000113	0.348651	0.300910	0.256945	0.007950	0.016412
0.072911	0.061421	0.061875	0.097628	0.001067	0.348394	0.300719	0.261299	0.007874	0.016354
0.073050	0.061394	0.061549	0.096926	0.002283	0.348063	0.300471	0.265467	0.007800	0.016296
0.073231	0.061294	0.061275	0.096203	0.003535	0.347695	0.300190	0.269416	0.007728	0.016239
0.073462	0.061117	0.061053	0.095458	0.004824	0.347326	0.299895	0.273108	0.007660	0.016183
0.073752	0.060860	0.060886	0.094691	0.006151	0.346989	0.299605	0.276501	0.007595	0.016128
0.074107	0.060522	0.060775	0.093903	0.007516	0.346717	0.299335	0.279550	0.007534	0.016072
0.074532	0.060106	0.060724	0.093096	0.008920	0.346538	0.299098	0.282206	0.007476	0.016017
0.075033	0.059616	0.060735	0.092272	0.010364	0.346477	0.298903	0.284418	0.007421	0.015961
0.075614	0.059057	0.060811	0.091433	0.011849	0.346557	0.298760	0.286136	0.007369	0.015903
0.076278	0.058436	0.060955	0.090580	0.013375	0.346800	0.298677	0.287317	0.007321	0.015844
0.077029	0.057760	0.061171	0.089713	0.014941	0.347224	0.298660	0.287928	0.007276	0.015781
0.077867	0.057033	0.061463	0.088833	0.016550	0.347844	0.298718	0.287949	0.007235	0.015716
0.078796	0.056264	0.061834	0.087939	0.018200	0.348676	0.298857	0.287372	0.007196	0.015647
0.079816	0.055459	0.062287	0.087032	0.019892	0.349731	0.299083	0.286196	0.007161	0.015575
0.080929	0.054625	0.062823	0.086115	0.021624	0.351018	0.299400	0.284426	0.007128	0.015499
0.082137	0.053767	0.063444	0.085190	0.023398	0.352544	0.299811	0.282074	0.007096	0.015420
0.083439	0.052891	0.064151	0.084262	0.025211	0.354309	0.300317	0.279166	0.007067	0.015339
0.084837	0.052001	0.064945	0.083335	0.027064	0.356310	0.300920	0.275742	0.007039	0.015256
0.086332	0.051101	0.065824	0.082415	0.028955	0.358540	0.301618	0.271851	0.007012	0.015173
0.087923	0.050194	0.066791	0.081505	0.030883	0.360987	0.302407	0.267549	0.006986	0.015091
0.089609	0.049284	0.067847	0.080612	0.032848	0.363636	0.303281	0.262889	0.006961	0.015012
0.091390	0.048371	0.068993	0.079740	0.034849	0.366466	0.304238	0.257925	0.006938	0.014936
0.093263	0.047459	0.070231	0.078896	0.036885	0.369453	0.305273	0.252706	0.006917	0.014864
0.095226	0.046550	0.071563	0.078084	0.038955	0.372568	0.306384	0.247279	0.006899	0.014800
0.097275	0.045646	0.072990	0.077309	0.041058	0.375780	0.307563	0.241686	0.006884	0.014742
0.099403	0.044749	0.074514	0.076575	0.043194	0.379053	0.308804	0.235968	0.006873	0.014694
0.101606	0.043861	0.076135	0.075887	0.045361	0.382349	0.310097	0.230162	0.006868	0.014656
0.103875	0.042985	0.077853	0.075245	0.047557	0.385634	0.311437	0.224301	0.006869	0.014629
0.106201	0.042123	0.079668	0.074653	0.049780	0.388877	0.312817	0.218417	0.006876	0.014615
0.108574	0.041279	0.081579	0.074110	0.052027	0.392050	0.314233	0.212538	0.006892	0.014616
0.110982	0.040456	0.083584	0.073616	0.054295	0.395131	0.315675	0.206690	0.006918	0.014632
0.113410	0.039659	0.085682	0.073171	0.056579	0.398100	0.317132	0.200900	0.006955	0.014666
0.115845	0.038892	0.087870	0.072771	0.058876	0.400953	0.318593	0.195191	0.007005	0.014718
0.118271	0.038157	0.090143	0.072415	0.061180	0.403693	0.320050	0.189590	0.007071	0.014789
0.120670	0.037459	0.092497	0.072100	0.063484	0.406331	0.321492	0.184118	0.007154	0.014881
0.123029	0.036801	0.094928	0.071824	0.065782	0.408874	0.322911	0.178802	0.007256	0.014993
0.125336	0.036187	0.097429	0.071584	0.068068	0.411330	0.324296	0.173662	0.007379	0.015127
0.127583	0.035618	0.099994	0.071382	0.070335	0.413699	0.325635	0.168722	0.007524	0.015283
0.129765	0.035097	0.102615	0.071216	0.072579	0.415985	0.326915	0.164004	0.007695	0.015461
0.131882	0.034628	0.105282	0.071086	0.074796	0.418185	0.328122	0.159526	0.007892	0.015662
0.133932	0.034211	0.107987	0.070994	0.076987	0.420297	0.329243	0.155307	0.008117	0.015886
0.135914	0.033848	0.110716	0.070940	0.079152	0.422317	0.330267	0.151362	0.008372	0.016132
0.137825	0.033540	0.113458	0.070923	0.081289	0.424234	0.331185	0.147705	0.008659	0.016401
0.139667	0.033288	0.116197	0.070947	0.083400	0.426036	0.331987	0.144346	0.008981	0.016693
0.141438	0.033092	0.118918	0.071014	0.085485	0.427710	0.332666	0.141295	0.009339	0.017006
0.143144	0.032954	0.121607	0.071127	0.087545	0.429237	0.333211	0.138559	0.009736	0.017342
0.144792	0.032874	0.124247	0.071288	0.089580	0.430600	0.333616	0.136144	0.010174	0.017700
0.146392	0.032853	0.126823	0.071501	0.091591	0.431781	0.333879	0.134054	0.010656	0.018080
0.147956	0.032892	0.129321	0.071766	0.093578	0.432768	0.334003	0.132290	0.011183	0.018482
0.149499	0.032993	0.131727	0.072086	0.095538	0.433549	0.333990	0.130852	0.011760	0.018908
0.151035	0.033158	0.134031	0.072461	0.097471	0.434112	0.333843	0.129741	0.012389	0.019360
0.152578	0.033387	0.136221	0.072892	0.099374	0.434448	0.333564	0.128954	0.013073	0.019840
0.154143	0.033685	0.138289	0.073378	0.101243	0.434552	0.333156	0.128489	0.013815	0.020350
0.155743	0.034051	0.140228	0.073918	0.103074	0.434430	0.332621	0.128340	0.014618	0.020891
0.157391	0.034488	0.142034	0.074513	0.104863	0.434092	0.331961	0.128504	0.015485	0.021466
0.159099	0.034996	0.143702	0.075161	0.106605	0.433556	0.331180	0.128974	0.016418	0.022077
0.160874	0.035577	0.145226	0.075861	0.108294	0.432838	0.330284	0.129742	0.017421	0.022724
0.162726	0.036232	0.146602	0.076614	0.109928	0.431951	0.329287	0.130801	0.018495	0.023412
0.164658	0.036962	0.147823	0.077417	0.111500	0.430905	0.328203	0.132141	0.019645	0.024141
0.166676	0.037766	0.148880	0.078270	0.113005	0.429711	0.327050	0.133753	0.020871	0.024913
0.168783	0.038647	0.149768	0.079171	0.114438	0.428379	0.325842	0.135627	0.022177	0.025732
0.170981	0.039605	0.150480	0.080117	0.115791	0.426925	0.324593	0.137752	0.023564	0.026598
0.173273	0.040639	0.151011	0.081104	0.117057	0.425362	0.323320	0.140118	0.025035	0.027515
0.175660	0.041749	0.151360	0.082128	0.118231	0.423706	0.322041	0.142714	0.026590	0.028484
0.178144	0.042935	0.151530	0.083184	0.119304	0.421977	0.320773	0.145530	0.028232	0.029509
0.180726	0.044194	0.151526	0.084268	0.120270	0.420196	0.319537	0.148552	0.029961	0.030592
0.183406	0.045527	0.151358	0.085371	0.121122	0.418384	0.318350	0.151766	0.031778	0.031734
0.186185	0.046929	0.151038	0.086487	0.121850	0.416565	0.317227	0.155157	0.033685	0.032936
0.189064	0.048399	0.150580	0.087608	0.122446	0.414760	0.316182	0.158710	0.035681	0.034200
0.192042	0.049933	0.149998	0.088724	0.122898	0.412991	0.315230	0.162407	0.037766	0.035527
0.195118	0.051527	0.149306	0.089828	0.123195	0.411285	0.314382	0.166230	0.039940	0.036917
0.198290	0.053177	0.148516	0.090914	0.123322	0.409669	0.313649	0.170157	0.042203	0.038371
0.201555	0.054880	0.147640	0.091974	0.123269	0.408175	0.313039	0.174167	0.044552	0.039889
0.204905	0.056631	0.146688	0.093006	0.123026	0.406829	0.312559	0.178235	0.046988	0.041470
0.208334	0.058426	0.145669	0.094005	0.122589	0.405658	0.312219	0.182336	0.049507	0.043113
0.211830	0.060262	0.144594	0.094969	0.121960	0.404685	0.312022	0.186444	0.052108	0.044818
0.215380	0.062136	0.143472	0.095896	0.121147	0.403932	0.311976	0.190535	0.054788	0.046581
0.218971	0.064044	0.142315	0.096783	0.120160	0.403419	0.312083	0.194586	0.057546	0.048402
0.222587	0.065982	0.141134	0.097627	0.119012	0.403167	0.312348	0.198575	0.060380	0.050277
0.226212	0.067946	0.139938	0.098429	0.117716	0.403200	0.312769	0.202478	0.063286	0.052202
0.229832	0.069931	0.138739	0.099190	0.116285	0.403540	0.313344	0.206274	0.066265	0.054175
0.233428	0.071931	0.137547	0.099914	0.114736	0.404211	0.314066	0.209944	0.069316	0.056193
0.236985	0.073942	0.136371	0.100605	0.113084	0.405231	0.314926	0.213472	0.072439	0.058253
0.240484	0.075957	0.135220	0.101267	0.111346	0.406616	0.315915	0.216845	0.075634	0.060353
0.243906	0.077971	0.134101	0.101903	0.109540	0.408378	0.317024	0.220050	0.078903	0.062491
0.247230	0.079976	0.133021	0.102517	0.107684	0.410525	0.318242	0.223076	0.082246	0.064665
0.250430	0.081965	0.131987	0.103112	0.105794	0.413064	0.319555	0.225919	0.085662	0.066874
0.253482	0.083928	0.131001	0.103693	0.103887	0.415995	0.320950	0.228578	0.089150	0.069114
0.256359	0.085859	0.130070	0.104266	0.101979	0.419317	0.322412	0.231055	0.092710	0.071382
0.259036	0.087747	0.129193	0.104837	0.100083	0.423023	0.323931	0.233354	0.096340	0.073676
0.261491	0.089586	0.128373	0.105412	0.098214	0.427101	0.325501	0.235484	0.100035	0.075993
0.263706	0.091366	0.127608	0.105997	0.096384	0.431540	0.327114	0.237458	0.103792	0.078328
0.265672	0.093082	0.126894	0.106598	0.094604	0.436321	0.328767	0.239293	0.107606	0.080679
0.267386	0.094726	0.126230	0.107217	0.092884	0.441424	0.330452	0.241010	0.111468	0.083041
0.268852	0.096295	0.125609	0.107859	0.091233	0.446829	0.332163	0.242627	0.115371	0.085406
0.270084	0.097786	0.125027	0.108528	0.089659	0.452516	0.333897	0.244162	0.119306	0.087769
0.271096	0.099196	0.124479	0.109229	0.088168	0.458474	0.335657	0.245632	0.123261	0.090121
0.271906	0.100526	0.123960	0.109967	0.086765	0.464701	0.337456	0.247056	0.127226	0.092453
0.272531	0.101775	0.123463	0.110745	0.085455	0.471198	0.339309	0.248447	0.131184	0.094757
0.272984	0.102941	0.122980	0.111569	0.084241	0.477972	0.341238	0.249820	0.135123	0.097021
0.273275	0.104025	0.122503	0.112444	0.083126	0.485029	0.343262	0.251185	0.139024	0.099233
0.273415	0.105023	0.122024	0.113371	0.082110	0.492370	0.345402	0.252551	0.142870	0.101381
0.273415	0.105935	0.121532	0.114352	0.081196	0.499995	0.347683	0.253927	0.146644	0.103453
0.273289	0.106758	0.121019	0.115387	0.080384	0.507896	0.350134	0.255319	0.150327	0.105439
0.273055	0.107495	0.120479	0.116475	0.079677	0.516064	0.352782	0.256731	0.153901	0.107333
0.272731	0.108145	0.119906	0.117613	0.079074	0.524481	0.355656	0.258164	0.157344	0.109134
0.272339	0.108713	0.119294	0.118797	0.078575	0.533126	0.358778	0.259617	0.160639	0.110841
0.271893	0.109201	0.118640	0.120022	0.078179	0.541973	0.362167	0.261084	0.163765	0.112455
0.271409	0.109614	0.117938	0.121284	0.077884	0.550996	0.365843	0.262559	0.166709	0.113974
0.270896	0.109956	0.117182	0.122578	0.077686	0.560161	0.369819	0.264038	0.169454	0.115399
0.270362	0.110235	0.116368	0.123899	0.077582	0.569434	0.374111	0.265518	0.171992	0.116726
0.269814	0.110454	0.115488	0.125240	0.077568	0.578778	0.378730	0.266999	0.174319	0.117953
0.269256	0.110622	0.114538	0.126594	0.077639	0.588159	0.383689	0.268480	0.176433	0.119080
0.268691	0.110743	0.113516	0.127954	0.077789	0.597541	0.388996	0.269963	0.178342	0.120104
0.268123	0.110824	0.112423	0.129309	0.078014	0.606886	0.394658	0.271452	0.180051	0.121027
0.267557	0.110867	0.111264	0.130648	0.078306	0.616155	0.400674	0.272956	0.181572	0.121852
0.266999	0.110876	0.110043	0.131958	0.078659	0.625310	0.407038	0.274487	0.182915	0.122583
0.266457	0.110851	0.108769	0.133226	0.079065	0.634317	0.413740	0.276059	0.184094	0.123227
0.265940	0.110791	0.107448	0.134442	0.079520	0.643144	0.420763	0.277685	0.185122	0.123792
0.265459	0.110695	0.106090	0.135594	0.080019	0.651761	0.428086	0.279375	0.186015	0.124289
0.265025	0.110559	0.104700	0.136675	0.080562	0.660140	0.435686	0.281136	0.186786	0.124727
0.264647	0.110378	0.103284	0.137674	0.081150	0.668259	0.443544	0.282968	0.187448	0.125117
0.264335	0.110147	0.101849	0.138584	0.081785	0.676115	0.451648	0.284873	0.188013	0.125467
0.264095	0.109859	0.100398	0.139395	0.082470	0.683716	0.459989	0.286843	0.188494	0.125785
0.263933	0.109510	0.098932	0.140100	0.083208	0.691084	0.468562	0.288871	0.188906	0.126075
0.263850	0.109094	0.097453	0.140693	0.084002	0.698241	0.477363	0.290947	0.189265	0.126342
0.263848	0.108609	0.095961	0.141170	0.084857	0.705212	0.486380	0.293062	0.189587	0.126588
0.263920	0.108052	0.094455	0.141531	0.085777	0.712014	0.495598	0.295208	0.189888	0.126815
0.264063	0.107425	0.092935	0.141772	0.086773	0.718656	0.504998	0.297378	0.190182	0.127023
0.264270	0.106729	0.091400	0.141893	0.087857	0.725142	0.514560	0.299564	0.190483	0.127214
0.264532	0.105967	0.089852	0.141890	0.089045	0.731468	0.524259	0.301758	0.190805	0.127393
0.264842	0.105143	0.088292	0.141760	0.090352	0.737629	0.534068	0.303950	0.191162	0.127564
0.265191	0.104261	0.086722	0.141500	0.091791	0.743614	0.543954	0.306134	0.191571	0.127731
0.265568	0.103325	0.085147	0.141109	0.093377	0.749410	0.553876	0.308303	0.192047	0.127901
0.265962	0.102339	0.083571	0.140586	0.095120	0.754999	0.563790	0.310452	0.192604	0.128080
0.266360	0.101306	0.082000	0.139934	0.097032	0.760359	0.573647	0.312574	0.193258	0.128277
0.266747	0.100227	0.080438	0.139154	0.099125	0.765466	0.583401	0.314656	0.194020	0.128496
0.267111	0.099104	0.078893	0.138247	0.101407	0.770297	0.593014	0.316684	0.194902	0.128742
0.267439	0.097935	0.077369	0.137215	0.103885	0.774829	0.602455	0.318638	0.195913	0.129020
0.267718	0.096719	0.075871	0.136060	0.106567	0.779038	0.611705	0.320494	0.197062	0.129332
0.267941	0.095457	0.074404	0.134786	0.109460	0.782901	0.620750	0.322223	0.198355	0.129677
0.268100	0.094149	0.072973	0.133394	0.112569	0.786395	0.629578	0.323797	0.199800	0.130055
0.268192	0.092796	0.071580	0.131890	0.115899	0.789493	0.638179	0.325188	0.201402	0.130465
0.268216	0.091403	0.070229	0.130280	0.119456	0.792171	0.646544	0.326374	0.203164	0.130904
0.268174	0.089974	0.068922	0.128573	0.123245	0.794395	0.654668	0.327342	0.205087	0.131369
0.268068	0.088513	0.067661	0.126778	0.127270	0.796127	0.662550	0.328084	0.207172	0.131856
0.267902	0.087027	0.066449	0.124903	0.131540	0.797319	0.670193	0.328596	0.209416	0.132359
0.267679	0.085524	0.065289	0.122959	0.136062	0.797926	0.677599	0.328876	0.211817	0.132874
0.267401	0.084010	0.064184	0.120952	0.140846	0.797907	0.684774	0.328924	0.214375	0.133395
0.267066	0.082494	0.063140	0.118890	0.145899	0.797248	0.691727	0.328749	0.217090	0.133916
0.266669	0.080984	0.062160	0.116781	0.151227	0.795960	0.698471	0.328364	0.219958	0.134432
0.266203	0.079485	0.061251	0.114633	0.156836	0.794070	0.705018	0.327784	0.222980	0.134936
0.265656	0.078005	0.060415	0.112459	0.162728	0.791615	0.711375	0.327025	0.226153	0.135423
0.265015	0.076551	0.059659	0.110271	0.168904	0.788625	0.717542	0.326101	0.229476	0.135887
0.264266	0.075128	0.058985	0.108083	0.175364	0.785119	0.723513	0.325030	0.232947	0.136323
0.263392	0.073745	0.058397	0.105912	0.182104	0.781110	0.729274	0.323829	0.236565	0.136724
0.262379	0.072410	0.057896	0.103771	0.189120	0.776601	0.734808	0.322511	0.240327	0.137085
0.261211	0.071131	0.057484	0.101677	0.196404	0.771596	0.740100	0.321091	0.244229	0.137399
0.259876	0.069917	0.057162	0.099644	0.203947	0.766095	0.745131	0.319581	0.248270	0.137662
0.258367	0.068779	0.056929	0.097686	0.211738	0.760102	0.749878	0.317990	0.252443	0.137872
0.256680	0.067725	0.056784	0.095816	0.219764	0.753622	0.754312	0.316329	0.256741	0.138029
0.254815	0.066762	0.056726	0.094046	0.228013	0.746661	0.758394	0.314602	0.261151	0.138134
0.252779	0.065898	0.056752	0.092387	0.236475	0.739232	0.762080	0.312811	0.265660	0.138190
0.250581	0.065137	0.056859	0.090847	0.245142	0.731352	0.765325	0.310954	0.270251	0.138201
0.248235	0.064486	0.057045	0.089434	0.254007	0.723042	0.768090	0.309023	0.274905	0.138169
0.245756	0.063948	0.057306	0.088157	0.263064	0.714329	0.770337	0.307008	0.279597	0.138095
0.243161	0.063526	0.057636	0.087021	0.272306	0.705239	0.772032	0.304892	0.284304	0.137980
0.240466	0.063221	0.058031	0.086029	0.281725	0.695795	0.773140	0.302660	0.289000	0.137824
0.237689	0.063035	0.058484	0.085187	0.291311	0.686015	0.773626	0.300289	0.293662	0.137626
0.234844	0.062969	0.058990	0.084497	0.301056	0.675909	0.773461	0.297757	0.298266	0.137386
0.231943	0.063023	0.059542	0.083959	0.310950	0.665478	0.772634	0.295043	0.302787	0.137105
0.228997	0.063198	0.060134	0.083576	0.320983	0.654720	0.771156	0.292133	0.307201	0.136788
0.226015	0.063497	0.060760	0.083347	0.331143	0.643632	0.769054	0.289014	0.311483	0.136439
0.223004	0.063920	0.061416	0.083270	0.341419	0.632226	0.766366	0.285681	0.315609	0.136067
0.219970	0.064471	0.062098	0.083346	0.351800	0.620530	0.763128	0.282127	0.319554	0.135677
0.216918	0.065150	0.062804	0.083571	0.362277	0.608595	0.759370	0.278345	0.323293	0.135279
0.213853	0.065961	0.063534	0.083945	0.372846	0.596481	0.755119	0.274330	0.326800	0.134878
0.210777	0.066906	0.064286	0.084465	0.383506	0.584257	0.750400	0.270079	0.330053	0.134480
0.207695	0.067985	0.065059	0.085129	0.394261	0.571986	0.745244	0.265598	0.333028	0.134090
0.204607	0.069202	0.065854	0.085931	0.405111	0.559727	0.739683	0.260896	0.335709	0.133711
0.201515	0.070558	0.066670	0.086868	0.416058	0.547531	0.733755	0.255993	0.338079	0.133343
0.198420	0.072057	0.067509	0.087933	0.427098	0.535443	0.727505	0.250913	0.340128	0.132986
0.195324	0.073700	0.068372	0.089122	0.438227	0.523506	0.720980	0.245683	0.341845	0.132641
0.192230	0.075489	0.069265	0.090430	0.449442	0.511760	0.714234	0.240329	0.343224	0.132305
0.189139	0.077426	0.070191	0.091852	0.460734	0.500241	0.707323	0.234878	0.344261	0.131977
0.186056	0.079512	0.071157	0.093385	0.472095	0.488987	0.700299	0.229353	0.344959	0.131655
0.182986	0.081750	0.072169	0.095025	0.483512	0.478027	0.693212	0.223778	0.345329	0.131337
0.179936	0.084139	0.073231	0.096771	0.494968	0.467390	0.686109	0.218176	0.345386	0.131026
0.176914	0.086679	0.074349	0.098619	0.506445	0.457093	0.679042	0.212571	0.345146	0.130719
0.173933	0.089369	0.075527	0.100569	0.517927	0.447151	0.672063	0.206985	0.344625	0.130420
0.171003	0.092210	0.076769	0.102615	0.529400	0.437570	0.665228	0.201442	0.343834	0.130129
0.168139	0.095199	0.078077	0.104754	0.540848	0.428352	0.658589	0.195961	0.342779	0.129848
0.165356	0.098336	0.079453	0.106980	0.552254	0.419495	0.652196	0.190563	0.341464	0.129579
0.162668	0.101622	0.080899	0.109290	0.563598	0.410995	0.646091	0.185265	0.339889	0.129322
0.160091	0.105053	0.082415	0.111678	0.574855	0.402850	0.640314	0.180081	0.338059	0.129075
0.157635	0.108627	0.084000	0.114139	0.585997	0.395054	0.634898	0.175024	0.335977	0.128836
0.155313	0.112341	0.085655	0.116666	0.596994	0.387603	0.629874	0.170103	0.333650	0.128601
0.153135	0.116188	0.087375	0.119253	0.607813	0.380495	0.625261	0.165326	0.331087	0.128367
0.151109	0.120163	0.089159	0.121893	0.618419	0.373726	0.621074	0.160696	0.328300	0.128132
0.149246	0.124258	0.091001	0.124575	0.628786	0.367295	0.617318	0.156218	0.325308	0.127892
0.147552	0.128466	0.092895	0.127292	0.638885	0.361201	0.613990	0.151892	0.322127	0.127647
0.146033	0.132781	0.094837	0.130034	0.648687	0.355441	0.611080	0.147718	0.318774	0.127393
0.144695	0.137195	0.096818	0.132794	0.658159	0.350008	0.608575	0.143694	0.315261	0.127130
0.143540	0.141698	0.098834	0.135569	0.667265	0.344893	0.606458	0.139820	0.311600	0.126854
0.142570	0.146282	0.100875	0.138357	0.675965	0.340086	0.604709	0.136099	0.307801	0.126562
0.141787	0.150934	0.102935	0.141156	0.684216	0.335580	0.603311	0.132536	0.303871	0.126253
0.141191	0.155644	0.105006	0.143966	0.691970	0.331374	0.602241	0.129136	0.299820	0.125923
0.140781	0.160397	0.107082	0.146786	0.699183	0.327464	0.601479	0.125904	0.295656	0.125569
0.140554	0.165180	0.109158	0.149615	0.705813	0.323847	0.601002	0.122846	0.291392	0.125189
0.140507	0.169975	0.111231	0.152450	0.711820	0.320518	0.600782	0.119963	0.287039	0.124778
0.140639	0.174766	0.113301	0.155290	0.717165	0.317466	0.600789	0.117257	0.282610	0.124330
0.140946	0.179532	0.115368	0.158135	0.721804	0.314677	0.600991	0.114730	0.278117	0.123842
0.141428	0.184251	0.117438	0.160986	0.725687	0.312133	0.601346	0.112381	0.273568	0.123311
0.142089	0.188897	0.119512	0.163848	0.728768	0.309811	0.601811	0.110209	0.268969	0.122735
0.142931	0.193444	0.121596	0.166729	0.731017	0.307685	0.602335	0.108211	0.264327	0.122115
0.143961	0.197861	0.123694	0.169637	0.732415	0.305725	0.602866	0.106384	0.259651	0.121454
0.145184	0.202119	0.125811	0.172583	0.732958	0.303898	0.603358	0.104723	0.254956	0.120757
0.146608	0.206186	0.127956	0.175576	0.732645	0.302169	0.603774	0.103225	0.250260	0.120031
0.148238	0.210033	0.130141	0.178625	0.731489	0.300503	0.604092	0.101886	0.245583	0.119280
0.150076	0.213634	0.132376	0.181737	0.729515	0.298867	0.604302	0.100703	0.240942	0.118513
0.152125	0.216969	0.134672	0.184923	0.726763	0.297237	0.604402	0.099679	0.236354	0.117735
0.154386	0.220022	0.137041	0.188188	0.723277	0.295594	0.604390	0.098815	0.231831	0.116950
0.156857	0.222784	0.139491	0.191541	0.719100	0.293923	0.604263	0.098119	0.227388	0.116163
0.159533	0.225248	0.142030	0.194986	0.714269	0.292214	0.604009	0.097596	0.223038	0.115376
0.162410	0.227412	0.144666	0.198526	0.708816	0.290459	0.603609	0.097256	0.218792	0.114589
0.165481	0.229272	0.147404	0.202164	0.702767	0.288654	0.603042	0.097107	0.214664	0.113804
0.168741	0.230822	0.150251	0.205900	0.696143	0.286802	0.602280	0.097157	0.210664	0.113021
0.172182	0.232057	0.153211	0.209734	0.688957	0.284911	0.601297	0.097414	0.206804	0.112241
0.175798	0.232976	0.156291	0.213664	0.681215	0.282989	0.600063	0.097884	0.203092	0.111466
0.179581	0.233578	0.159499	0.217685	0.672926	0.281046	0.598547	0.098570	0.199535	0.110695
0.183520	0.233869	0.162840	0.221791	0.664101	0.279092	0.596719	0.099477	0.196139	0.109931
0.187605	0.233861	0.166320	0.225978	0.654763	0.277131	0.594549	0.100607	0.192909	0.109176
0.191820	0.233571	0.169943	0.230237	0.644944	0.275168	0.592010	0.101961	0.189847	0.108432
0.196148	0.233020	0.173710	0.234558	0.634685	0.273203	0.589074	0.103539	0.186959	0.107703
0.200569	0.232233	0.177623	0.238931	0.624024	0.271236	0.585719	0.105342	0.184250	0.106996
0.205061	0.231236	0.181682	0.243343	0.612999	0.269266	0.581925	0.107366	0.181727	0.106316
0.209596	0.230055	0.185885	0.247780	0.601638	0.267294	0.577672	0.109609	0.179396	0.105670
0.214148	0.228719	0.190228	0.252227	0.589961	0.265317	0.572944	0.112067	0.177261	0.105064
0.218688	0.227251	0.194703	0.256665	0.577984	0.263334	0.567729	0.114734	0.175322	0.104504
0.223188	0.225676	0.199302	0.261078	0.565716	0.261339	0.562015	0.117604	0.173578	0.103993
0.227624	0.224014	0.204013	0.265447	0.553167	0.259325	0.555800	0.120669	0.172026	0.103532
0.231972	0.222284	0.208823	0.269751	0.540353	0.257284	0.549076	0.123920	0.170661	0.103125
0.236214	0.220502	0.213714	0.273964	0.527308	0.255204	0.541838	0.127349	0.169476	0.102770
0.240335	0.218686	0.218670	0.278060	0.514082	0.253070	0.534081	0.130944	0.168468	0.102469
0.244323	0.216850	0.223670	0.282009	0.500735	0.250868	0.525810	0.134691	0.167629	0.102222
0.248171	0.215009	0.228691	0.285780	0.487332	0.248580	0.517040	0.138575	0.166953	0.102029
0.251871	0.213178	0.233709	0.289347	0.473930	0.246196	0.507802	0.142580	0.166430	0.101892
0.255420	0.211372	0.238697	0.292690	0.460583	0.243711	0.498139	0.146687	0.166049	0.101811
0.258816	0.209605	0.243628	0.295795	0.447337	0.241125	0.488105	0.150878	0.165798	0.101789
0.262059	0.207892	0.248474	0.298653	0.434236	0.238445	0.477761	0.155135	0.165666	0.101829
0.265151	0.206248	0.253203	0.301257	0.421324	0.235678	0.467170	0.159439	0.165641	0.101936
0.268090	0.204687	0.257790	0.303601	0.408642	0.232835	0.456397	0.163774	0.165715	0.102115
0.270875	0.203221	0.262212	0.305681	0.396232	0.229922	0.445499	0.168127	0.165880	0.102370
0.273504	0.201863	0.266449	0.307504	0.384129	0.226945	0.434529	0.172483	0.166132	0.102709
0.275975	0.200622	0.270485	0.309081	0.372363	0.223911	0.423533	0.176832	0.166468	0.103136
0.278290	0.199506	0.274307	0.310434	0.360960	0.220824	0.412554	0.181160	0.166885	0.103656
0.280450	0.198521	0.277900	0.311595	0.349941	0.217691	0.401627	0.185456	0.167381	0.104274
0.282458	0.197674	0.281250	0.312600	0.339325	0.214521	0.390788	0.189704	0.167951	0.104993
0.284317	0.196966	0.284347	0.313487	0.329126	0.211323	0.380072	0.193892	0.168592	0.105816
0.286024	0.196398	0.287188	0.314296	0.319357	0.208107	0.369510	0.198006	0.169299	0.106744
0.287578	0.195973	0.289776	0.315063	0.310030	0.204881	0.359134	0.202031	0.170070	0.107779
0.288972	0.195693	0.292118	0.315824	0.301153	0.201654	0.348973	0.205954	0.170901	0.108920
0.290197	0.195560	0.294224	0.316615	0.292732	0.198438	0.339054	0.209763	0.171788	0.110165
0.291241	0.195581	0.296099	0.317470	0.284770	0.195240	0.329397	0.213451	0.172724	0.111514
0.292091	0.195762	0.297752	0.318426	0.277267	0.192071	0.320019	0.217011	0.173702	0.112971
0.292730	0.196112	0.299191	0.319515	0.270218	0.188940	0.310932	0.220439	0.174714	0.114539
0.293146	0.196635	0.300429	0.320768	0.263613	0.185855	0.302145	0.223727	0.175747	0.116224
0.293328	0.197338	0.301482	0.322211	0.257440	0.182825	0.293661	0.226868	0.176789	0.118032
0.293268	0.198224	0.302367	0.323866	0.251683	0.179856	0.285483	0.229857	0.177824	0.119968
0.292968	0.199296	0.303103	0.325751	0.246323	0.176957	0.277613	0.232688	0.178838	0.122039
0.292433	0.200558	0.303704	0.327881	0.241338	0.174131	0.270053	0.235363	0.179816	0.124249
0.291673	0.202014	0.304184	0.330265	0.236703	0.171386	0.262803	0.237886	0.180747	0.126602
0.290701	0.203673	0.304555	0.332911	0.232390	0.168722	0.255868	0.240269	0.181622	0.129104
0.289530	0.205541	0.304830	0.335822	0.228369	0.166143	0.249249	0.242524	0.182433	0.131755
0.288173	0.207624	0.305024	0.339000	0.224610	0.163648	0.242950	0.244666	0.183174	0.134561
0.286638	0.209924	0.305152	0.342441	0.221080	0.161236	0.236976	0.246705	0.183840	0.137523
0.284935	0.212441	0.305231	0.346144	0.217746	0.158906	0.231330	0.248652	0.184431	0.140644
0.283067	0.215174	0.305276	0.350103	0.214576	0.156658	0.226013	0.250517	0.184943	0.143928
0.281036	0.218116	0.305302	0.354311	0.211543	0.154495	0.221027	0.252311	0.185377	0.147378
0.278840	0.221259	0.305318	0.358762	0.208616	0.152420	0.216367	0.254042	0.185732	0.150995
0.276478	0.224595	0.305330	0.363446	0.205766	0.150435	0.212030	0.255720	0.186008	0.154782
0.273947	0.228112	0.305342	0.368353	0.202965	0.148544	0.208006	0.257353	0.186205	0.158737
0.271247	0.231802	0.305353	0.373472	0.200188	0.146751	0.204286	0.258946	0.186331	0.162861
0.268378	0.235652	0.305361	0.378792	0.197412	0.145058	0.200855	0.260501	0.186396	0.167154
0.265342	0.239652	0.305359	0.384297	0.194620	0.143466	0.197698	0.262017	0.186407	0.171618
0.262142	0.243789	0.305339	0.389968	0.191799	0.141975	0.194797	0.263491	0.186376	0.176256
0.258785	0.248049	0.305292	0.395782	0.188944	0.140583	0.192134	0.264918	0.186313	0.181072
0.255276	0.252412	0.305204	0.401714	0.186049	0.139287	0.189689	0.266291	0.186235	0.186069
0.251626	0.256857	0.305059	0.407739	0.183112	0.138081	0.187447	0.267602	0.186163	0.191250
0.247846	0.261361	0.304842	0.413835	0.180131	0.136958	0.185389	0.268840	0.186120	0.196615
0.243947	0.265899	0.304540	0.419980	0.177105	0.135912	0.183501	0.269997	0.186129	0.202161
0.239942	0.270444	0.304146	0.426152	0.174036	0.134934	0.181770	0.271060	0.186212	0.207884
0.235846	0.274973	0.303660	0.432324	0.170930	0.134016	0.180184	0.272021	0.186392	0.213778
0.231673	0.279463	0.303086	0.438470	0.167791	0.133149	0.178731	0.272868	0.186687	0.219831
0.227437	0.283893	0.302430	0.444562	0.164624	0.132323	0.177396	0.273589	0.187116	0.226031
0.223152	0.288241	0.301700	0.450571	0.161433	0.131527	0.176165	0.274171	0.187697	0.232362
0.218831	0.292486	0.300903	0.456470	0.158219	0.130750	0.175022	0.274596	0.188445	0.238807
0.214485	0.296601	0.300046	0.462229	0.154985	0.129978	0.173949	0.274847	0.189372	0.245343
0.210122	0.300564	0.299143	0.467815	0.151731	0.129199	0.172930	0.274907	0.190489	0.251950
0.205749	0.304353	0.298208	0.473191	0.148458	0.128400	0.171946	0.274766	0.191807	0.258603
0.201370	0.307956	0.297256	0.478323	0.145168	0.127567	0.170979	0.274420	0.193334	0.265279
0.196986	0.311371	0.296298	0.483178	0.141866	0.126688	0.170012	0.273880	0.195080	0.271959
0.192595	0.314611	0.295346	0.487736	0.138558	0.125754	0.169030	0.273163	0.197052	0.278623
0.188197	0.317694	0.294414	0.491983	0.135252	0.124760	0.168019	0.272290	0.199255	0.285254
0.183790	0.320649	0.293514	0.495915	0.131956	0.123702	0.166966	0.271287	0.201692	0.291836
0.179372	0.323507	0.292664	0.499531	0.128677	0.122577	0.165860	0.270175	0.204365	0.298351
0.174943	0.326298	0.291879	0.502832	0.125424	0.121383	0.164688	0.268980	0.207272	0.304780
0.170505	0.329051	0.291173	0.505820	0.122203	0.120116	0.163438	0.267728	0.210411	0.311100
0.166061	0.331797	0.290557	0.508497	0.119022	0.118775	0.162103	0.266447	0.213778	0.317286
0.161615	0.334564	0.290038	0.510866	0.115888	0.117358	0.160678	0.265164	0.217367	0.323312
0.157171	0.337382	0.289623	0.512926	0.112808	0.115865	0.159160	0.263907	0.221167	0.329151
0.152736	0.340282	0.289313	0.514677	0.109791	0.114296	0.157543	0.262704	0.225169	0.334779
0.148315	0.343289	0.289108	0.516125	0.106843	0.112654	0.155824	0.261582	0.229356	0.340173
0.143916	0.346430	0.289004	0.517282	0.103973	0.110941	0.153998	0.260566	0.233712	0.345313
0.139547	0.349726	0.288992	0.518174	0.101188	0.109165	0.152058	0.259682	0.238222	0.350186
0.135217	0.353202	0.289066	0.518835	0.098494	0.107331	0.150000	0.258951	0.242867	0.354782
0.130935	0.356877	0.289217	0.519307	0.095897	0.105445	0.147821	0.258393	0.247628	0.359094
0.126711	0.360771	0.289440	0.519634	0.093401	0.103515	0.145519	0.258025	0.252483	0.363122
0.122552	0.364901	0.289734	0.519862	0.091010	0.101546	0.143094	0.257858	0.257412	0.366869
0.118466	0.369283	0.290100	0.520034	0.088725	0.099543	0.140544	0.257904	0.262392	0.370344
0.114460	0.373930	0.290540	0.520193	0.086547	0.097510	0.137868	0.258166	0.267403	0.373557
0.110538	0.378849	0.291051	0.520380	0.084475	0.095452	0.135066	0.258647	0.272431	0.376531
0.106703	0.384046	0.291631	0.520632	0.082507	0.093370	0.132141	0.259348	0.277462	0.379300
0.102958	0.389518	0.292272	0.520981	0.080640	0.091269	0.129100	0.260265	0.282486	0.381902
0.099304	0.395262	0.292964	0.521456	0.078871	0.089152	0.125953	0.261392	0.287490	0.384378
0.095743	0.401266	0.293697	0.522085	0.077194	0.087023	0.122713	0.262724	0.292463	0.386765
0.092272	0.407519	0.294459	0.522894	0.075606	0.084886	0.119396	0.264251	0.297394	0.389097
0.088893	0.414007	0.295237	0.523906	0.074100	0.082747	0.116016	0.265964	0.302276	0.391406
0.085603	0.420716	0.296014	0.525143	0.072672	0.080610	0.112588	0.267851	0.307104	0.393724
0.082401	0.427624	0.296774	0.526620	0.071319	0.078480	0.109126	0.269900	0.311882	0.396079
0.079288	0.434710	0.297499	0.528352	0.070034	0.076365	0.105642	0.272099	0.316616	0.398499
0.076263	0.441948	0.298176	0.530353	0.068813	0.074269	0.102150	0.274430	0.321317	0.401005
0.073326	0.449314	0.298795	0.532632	0.067651	0.072198	0.098660	0.276877	0.325992	0.403618
0.070480	0.456782	0.299347	0.535199	0.066540	0.070159	0.095185	0.279428	0.330650	0.406354
0.067724	0.464328	0.299821	0.538056	0.065475	0.068154	0.091735	0.282074	0.335298	0.409226
0.065061	0.471922	0.300208	0.541205	0.064447	0.066189	0.088320	0.284817	0.339939	0.412242
0.062490	0.479538	0.300498	0.544644	0.063450	0.064268	0.084952	0.287665	0.344573	0.415407
0.060011	0.487146	0.300686	0.548371	0.062476	0.062392	0.081639	0.290626	0.349195	0.418719
0.057624	0.494724	0.300773	0.552386	0.061518	0.060568	0.078392	0.293706	0.353803	0.422177
0.055326	0.502252	0.300768	0.556691	0.060571	0.058797	0.075221	0.296908	0.358389	0.425777
0.053118	0.509714	0.300688	0.561291	0.059631	0.057085	0.072133	0.300232	0.362948	0.429516
0.050997	0.517091	0.300550	0.566199	0.058694	0.055433	0.069139	0.303678	0.367469	0.433386
0.048962	0.524363	0.300376	0.571433	0.057759	0.053844	0.066244	0.307247	0.371938	0.437375
0.047013	0.531505	0.300186	0.577011	0.056822	0.052321	0.063455	0.310944	0.376336	0.441468
0.045147	0.538486	0.300002	0.582946	0.055883	0.050863	0.060777	0.314771	0.380646	0.445652
0.043365	0.545278	0.299848	0.589248	0.054938	0.049473	0.058215	0.318729	0.384848	0.449909
0.041666	0.551850	0.299751	0.595925	0.053986	0.048151	0.055774	0.322816	0.388927	0.454222
0.040047	0.558180	0.299738	0.602987	0.053024	0.046898	0.053457	0.327026	0.392870	0.458572
0.038508	0.564248	0.299832	0.610442	0.052053	0.045715	0.051266	0.331353	0.396660	0.462939
0.037046	0.570041	0.300055	0.618296	0.051074	0.044602	0.049205	0.335785	0.400283	0.467301
0.035658	0.575555	0.300425	0.626551	0.050090	0.043560	0.047275	0.340308	0.403719	0.471639
0.034341	0.580789	0.300957	0.635213	0.049103	0.042588	0.045477	0.344904	0.406952	0.475931
0.033090	0.585750	0.301665	0.644290	0.048119	0.041685	0.043813	0.349551	0.409965	0.480153
0.031902	0.590440	0.302560	0.653792	0.047142	0.040853	0.042283	0.354226	0.412742	0.484285
0.030772	0.594860	0.303652	0.663733	0.046175	0.040090	0.040886	0.358901	0.415268	0.488315
0.029696	0.599005	0.304951	0.674123	0.045223	0.039395	0.039622	0.363548	0.417535	0.492238
0.028671	0.602868	0.306464	0.684971	0.044289	0.038770	0.038490	0.368133	0.419546	0.496056
0.027694	0.606444	0.308198	0.696275	0.043378	0.038214	0.037488	0.372626	0.421315	0.499772
0.026763	0.609729	0.310157	0.708028	0.042494	0.037730	0.036614	0.376995	0.422861	0.503390
0.025878	0.612724	0.312343	0.720211	0.041641	0.037319	0.035866	0.381216	0.424201	0.506911
0.025038	0.615434	0.314756	0.732799	0.040823	0.036983	0.035239	0.385265	0.425350	0.510336
0.024243	0.617872	0.317393	0.745762	0.040046	0.036722	0.034731	0.389124	0.426327	0.513674
0.023494	0.620055	0.320248	0.759069	0.039315	0.036539	0.034339	0.392778	0.427145	0.516935
0.022790	0.622002	0.323311	0.772691	0.038633	0.036435	0.034059	0.396211	0.427817	0.520131
0.022131	0.623731	0.326572	0.786599	0.038005	0.036411	0.033888	0.399408	0.428355	0.523273
0.021517	0.625254	0.330023	0.800761	0.037435	0.036467	0.033824	0.402352	0.428766	0.526365
0.020948	0.626580	0.333653	0.815140	0.036925	0.036605	0.033863	0.405023	0.429057	0.529415
0.020423	0.627714	0.337459	0.829691	0.036480	0.036824	0.034004	0.407398	0.429229	0.532430
0.019942	0.628660	0.341438	0.844359	0.036103	0.037127	0.034246	0.409454	0.429284	0.535417
0.019502	0.629428	0.345592	0.859079	0.035796	0.037514	0.034587	0.411162	0.429221	0.538387
0.019104	0.630030	0.349921	0.873780	0.035562	0.037987	0.035026	0.412496	0.429042	0.541351
0.018746	0.630486	0.354426	0.888393	0.035403	0.038547	0.035561	0.413429	0.428754	0.544321
0.018425	0.630814	0.359102	0.902850	0.035323	0.039194	0.036190	0.413943	0.428369	0.547314
0.018141	0.631033	0.363942	0.917099	0.035323	0.039930	0.036910	0.414030	0.427901	0.550361
0.017892	0.631155	0.368937	0.931095	0.035406	0.040756	0.037719	0.413698	0.427373	0.553495
0.017677	0.631186	0.374073	0.944803	0.035572	0.041673	0.038614	0.412965	0.426810	0.556756
0.017495	0.631124	0.379336	0.958193	0.035823	0.042681	0.039589	0.411860	0.426243	0.560181
0.017345	0.630963	0.384706	0.971228	0.036160	0.043783	0.040642	0.410409	0.425700	0.563802
0.017225	0.630697	0.390159	0.983860	0.036585	0.044979	0.041768	0.408635	0.425209	0.567645
0.017135	0.630321	0.395668	0.996031	0.037100	0.046269	0.042963	0.406557	0.424791	0.571730
0.017071	0.629831	0.401202	1.007667	0.037705	0.047656	0.044222	0.404189	0.424468	0.576069
0.017035	0.629225	0.406729	1.018678	0.038402	0.049137	0.045541	0.401542	0.424256	0.580667
0.017025	0.628504	0.412217	1.028962	0.039191	0.050713	0.046916	0.398624	0.424167	0.585524
0.017040	0.627673	0.417634	1.038404	0.040071	0.052382	0.048341	0.395448	0.424208	0.590639
0.017080	0.626735	0.422948	1.046882	0.041044	0.054142	0.049814	0.392029	0.424384	0.596000
0.017146	0.625694	0.428123	1.054279	0.042109	0.055993	0.051329	0.388390	0.424693	0.601597
0.017238	0.624550	0.433125	1.060495	0.043266	0.057930	0.052885	0.384556	0.425133	0.607412
0.017354	0.623294	0.437914	1.065465	0.044514	0.059953	0.054479	0.380559	0.425702	0.613430
0.017496	0.621911	0.442458	1.069163	0.045852	0.062056	0.056110	0.376433	0.426397	0.619634
0.017662	0.620382	0.446735	1.071601	0.047277	0.064239	0.057774	0.372214	0.427216	0.626007
0.017852	0.618679	0.450737	1.072808	0.048787	0.066498	0.059471	0.367934	0.428152	0.632529
0.018064	0.616771	0.454472	1.072821	0.050380	0.068830	0.061198	0.363625	0.429196	0.639177
0.018299	0.614626	0.457957	1.071677	0.052052	0.071232	0.062951	0.359313	0.430341	0.645928
0.018555	0.612207	0.461216	1.069428	0.053799	0.073699	0.064727	0.355019	0.431588	0.652757
0.018830	0.609483	0.464271	1.066145	0.055617	0.076229	0.066520	0.350765	0.432948	0.659646
0.019123	0.606426	0.467145	1.061927	0.057501	0.078815	0.068327	0.346571	0.434440	0.666577
0.019432	0.603017	0.469857	1.056888	0.059446	0.081453	0.070144	0.342454	0.436087	0.673533
0.019755	0.599248	0.472432	1.051150	0.061447	0.084136	0.071967	0.338433	0.437913	0.680495
0.020090	0.595121	0.474897	1.044833	0.063496	0.086856	0.073793	0.334525	0.439940	0.687437
0.020436	0.590650	0.477280	1.038045	0.065588	0.089604	0.075620	0.330744	0.442187	0.694326
0.020789	0.585851	0.479614	1.030884	0.067713	0.092370	0.077443	0.327105	0.444669	0.701119
0.021147	0.580745	0.481934	1.023438	0.069866	0.095142	0.079261	0.323619	0.447398	0.707767
0.021508	0.575351	0.484274	1.015785	0.072040	0.097908	0.081070	0.320292	0.450386	0.714218
0.021868	0.569696	0.486664	1.007991	0.074230	0.100654	0.082866	0.317131	0.453644	0.720422
0.022224	0.563814	0.489130	1.000114	0.076430	0.103365	0.084646	0.314142	0.457182	0.726340
0.022572	0.557747	0.491690	0.992200	0.078636	0.106025	0.086405	0.311332	0.461003	0.731941
0.022909	0.551545	0.494357	0.984287	0.080844	0.108618	0.088136	0.308708	0.465106	0.737203
0.023231	0.545261	0.497139	0.976411	0.083047	0.111127	0.089835	0.306276	0.469482	0.742107
0.023534	0.538948	0.500038	0.968604	0.085239	0.113536	0.091497	0.304036	0.474119	0.746633
0.023813	0.532660	0.503056	0.960894	0.087412	0.115827	0.093115	0.301987	0.479001	0.750762
0.024066	0.526444	0.506192	0.953303	0.089558	0.117982	0.094685	0.300122	0.484107	0.754472
0.024287	0.520342	0.509443	0.945843	0.091667	0.119985	0.096202	0.298433	0.489412	0.757747
0.024471	0.514392	0.512800	0.938518	0.093730	0.121818	0.097662	0.296905	0.494886	0.760569
0.024614	0.508627	0.516251	0.931321	0.095735	0.123465	0.099057	0.295526	0.500497	0.762920
0.024711	0.503075	0.519778	0.924244	0.097674	0.124911	0.100381	0.294282	0.506215	0.764775
0.024760	0.497759	0.523354	0.917274	0.099535	0.126141	0.101626	0.293165	0.512009	0.766104
0.024760	0.492698	0.526950	0.910395	0.101309	0.127144	0.102786	0.292170	0.517845	0.766873
0.024708	0.487913	0.530528	0.903581	0.102988	0.127910	0.103857	0.291295	0.523686	0.767046
0.024604	0.483420	0.534054	0.896801	0.104565	0.128432	0.104837	0.290537	0.529488	0.766590
0.024449	0.479234	0.537494	0.890015	0.106031	0.128706	0.105725	0.289893	0.535204	0.765480
0.024240	0.475364	0.540822	0.883187	0.107382	0.128731	0.106525	0.289363	0.540784	0.763698
0.023979	0.471814	0.544018	0.876292	0.108612	0.128516	0.107238	0.288949	0.546179	0.761243
0.023665	0.468584	0.547067	0.869316	0.109715	0.128075	0.107868	0.288656	0.551346	0.758133
0.023299	0.465670	0.549957	0.862261	0.110684	0.127428	0.108419	0.288485	0.556255	0.754404
0.022881	0.463062	0.552677	0.855134	0.111514	0.126594	0.108894	0.288441	0.560890	0.750105
0.022414	0.460747	0.555215	0.847943	0.112198	0.125595	0.109297	0.288532	0.565250	0.745289
0.021900	0.458710	0.557553	0.840693	0.112731	0.124448	0.109630	0.288764	0.569334	0.740002
0.021341	0.456937	0.559669	0.833383	0.113110	0.123170	0.109896	0.289143	0.573146	0.734286
0.020741	0.455410	0.561537	0.826009	0.113335	0.121779	0.110095	0.289670	0.576684	0.728171
0.020102	0.454110	0.563130	0.818561	0.113407	0.120289	0.110227	0.290345	0.579949	0.721686
0.019428	0.453013	0.564420	0.811021	0.113332	0.118714	0.110291	0.291163	0.582937	0.714857
0.018720	0.452094	0.565382	0.803357	0.113118	0.117066	0.110286	0.292117	0.585646	0.707719
0.017982	0.451324	0.565993	0.795530	0.112772	0.115357	0.110210	0.293197	0.588073	0.700314
0.017215	0.450678	0.566235	0.787489	0.112303	0.113599	0.110060	0.294388	0.590217	0.692695
0.016421	0.450132	0.566091	0.779181	0.111719	0.111805	0.109837	0.295675	0.592084	0.684921
0.015603	0.449665	0.565543	0.770552	0.111026	0.109985	0.109537	0.297040	0.593678	0.677061
0.014761	0.449258	0.564578	0.761557	0.110232	0.108150	0.109160	0.298468	0.595001	0.669194
0.013897	0.448888	0.563181	0.752157	0.109342	0.106310	0.108704	0.299941	0.596044	0.661407
0.013015	0.448531	0.561341	0.742316	0.108363	0.104474	0.108169	0.301447	0.596792	0.653785
0.012115	0.448157	0.559050	0.732001	0.107299	0.102650	0.107557	0.302971	0.597224	0.646416
0.011201	0.447734	0.556302	0.721182	0.106158	0.100843	0.106872	0.304500	0.597315	0.639377
0.010275	0.447227	0.553092	0.709844	0.104944	0.099060	0.106116	0.306019	0.597047	0.632739
0.009341	0.446597	0.549414	0.697995	0.103664	0.097303	0.105297	0.307517	0.596403	0.626565
0.008405	0.445806	0.545258	0.685670	0.102321	0.095578	0.104420	0.308983	0.595370	0.620916
0.007472	0.444813	0.540610	0.672922	0.100922	0.093887	0.103494	0.310410	0.593936	0.615845
0.006549	0.443586	0.535449	0.659813	0.099471	0.092232	0.102525	0.311789	0.592100	0.611404
0.005642	0.442100	0.529755	0.646402	0.097975	0.090613	0.101519	0.313110	0.589873	0.607640
0.004759	0.440334	0.523509	0.632743	0.096440	0.089032	0.100483	0.314361	0.587279	0.604593
0.003908	0.438278	0.516697	0.618881	0.094872	0.087490	0.099422	0.315536	0.584348	0.602299
0.003094	0.435920	0.509320	0.604854	0.093277	0.085987	0.098341	0.316632	0.581111	0.600787
0.002326	0.433250	0.501388	0.590693	0.091662	0.084524	0.097247	0.317652	0.577605	0.600079
0.001613	0.430252	0.492924	0.576423	0.090032	0.083105	0.096147	0.318604	0.573878	0.600191
0.000961	0.426912	0.483961	0.562062	0.088395	0.081733	0.095050	0.319498	0.569987	0.601135
0.000380	0.423215	0.474538	0.547623	0.086756	0.080413	0.093964	0.320344	0.565995	0.602915
-0.000122	0.419147	0.464700	0.533113	0.085119	0.079152	0.092901	0.321151	0.561963	0.605533
-0.000536	0.414702	0.454487	0.518540	0.083490	0.077956	0.091870	0.321924	0.557948	0.608985
-0.000853	0.409873	0.443939	0.503912	0.081872	0.076833	0.090883	0.322665	0.553998	0.613260
-0.001063	0.404658	0.433092	0.489239	0.080271	0.075792	0.089948	0.323373	0.550161	0.618340
-0.001157	0.399056	0.421982	0.474529	0.078689	0.074838	0.089075	0.324043	0.546477	0.624203
-0.001123	0.393075	0.410647	0.459791	0.077132	0.073979	0.088274	0.324670	0.542984	0.630825
-0.000953	0.386725	0.399127	0.445034	0.075604	0.073219	0.087549	0.325245	0.539713	0.638177
-0.000634	0.380025	0.387462	0.430275	0.074109	0.072562	0.086909	0.325761	0.536687	0.646229
-0.000156	0.373001	0.375695	0.415535	0.072649	0.072011	0.086356	0.326213	0.533922	0.654943
0.000492	0.365680	0.363864	0.400841	0.071227	0.071569	0.085895	0.326595	0.531427	0.664278
0.001321	0.358092	0.352009	0.386225	0.069845	0.071236	0.085527	0.326903	0.529206	0.674181
0.002343	0.350268	0.340164	0.371714	0.068502	0.071012	0.085254	0.327128	0.527254	0.684595
0.003570	0.342233	0.328363	0.357336	0.067198	0.070897	0.085077	0.327261	0.525558	0.695450
0.005014	0.334015	0.316634	0.343110	0.065933	0.070891	0.084994	0.327286	0.524102	0.706669
0.006687	0.325639	0.305002	0.329057	0.064703	0.070991	0.085006	0.327186	0.522865	0.718164
0.008603	0.317138	0.293491	0.315191	0.063506	0.071196	0.085111	0.326943	0.521821	0.729842
0.010779	0.308542	0.282120	0.301526	0.062341	0.071502	0.085309	0.326543	0.520946	0.741606
0.013228	0.299884	0.270911	0.288075	0.061205	0.071906	0.085600	0.325976	0.520220	0.753355
0.015966	0.291195	0.259880	0.274850	0.060096	0.072403	0.085983	0.325244	0.519621	0.764990
0.019011	0.282508	0.249044	0.261867	0.059012	0.072986	0.086459	0.324358	0.519133	0.776411
0.022377	0.273852	0.238414	0.249140	0.057952	0.073649	0.087027	0.323340	0.518737	0.787520
0.026082	0.265256	0.228001	0.236686	0.056913	0.074386	0.087687	0.322213	0.518415	0.798217
0.030143	0.256748	0.217812	0.224522	0.055894	0.075189	0.088438	0.321002	0.518145	0.808395
0.034576	0.248354	0.207859	0.212663	0.054893	0.076051	0.089277	0.319731	0.517896	0.817946
0.039397	0.240098	0.198151	0.201122	0.053907	0.076964	0.090200	0.318424	0.517636	0.826762
0.044623	0.231999	0.188696	0.189911	0.052935	0.077919	0.091205	0.317104	0.517325	0.834747
0.050269	0.224078	0.179506	0.179038	0.051973	0.078909	0.092285	0.315788	0.516923	0.841823
0.056351	0.216352	0.170588	0.168511	0.051020	0.079926	0.093437	0.314491	0.516384	0.847930
0.062883	0.208834	0.161950	0.158336	0.050072	0.080965	0.094657	0.313225	0.515661	0.853015
0.069881	0.201537	0.153598	0.148520	0.049128	0.082020	0.095942	0.311997	0.514710	0.857027
0.077359	0.194473	0.145536	0.139067	0.048184	0.083089	0.097292	0.310812	0.513494	0.859908
0.085331	0.187652	0.137768	0.129981	0.047238	0.084170	0.098707	0.309671	0.511987	0.861607
0.093811	0.181082	0.130295	0.121263	0.046291	0.085261	0.100189	0.308571	0.510172	0.862082
0.102813	0.174771	0.123116	0.112914	0.045340	0.086363	0.101743	0.307504	0.508031	0.861309
0.112350	0.168726	0.116230	0.104934	0.044387	0.087475	0.103375	0.306461	0.505548	0.859282
0.122435	0.162952	0.109632	0.097321	0.043430	0.088597	0.105092	0.305427	0.502699	0.856013
0.133079	0.157455	0.103317	0.090071	0.042470	0.089727	0.106902	0.304390	0.499463	0.851521
0.144296	0.152238	0.097279	0.083180	0.041509	0.090864	0.108814	0.303338	0.495826	0.845829
0.156096	0.147302	0.091512	0.076642	0.040548	0.092008	0.110836	0.302256	0.491791	0.838956
0.168489	0.142646	0.086007	0.070451	0.039590	0.093157	0.112974	0.301131	0.487380	0.830915
0.181487	0.138267	0.080757	0.064599	0.038635	0.094309	0.115235	0.299949	0.482626	0.821718
0.195097	0.134163	0.075753	0.059077	0.037686	0.095464	0.117624	0.298699	0.477566	0.811381
0.209329	0.130326	0.070988	0.053876	0.036745	0.096620	0.120144	0.297373	0.472241	0.799927
0.224189	0.126752	0.066453	0.048987	0.035814	0.097781	0.122799	0.295965	0.466694	0.787395
0.239684	0.123434	0.062140	0.044400	0.034895	0.098947	0.125591	0.294472	0.460965	0.773840
0.255819	0.120368	0.058044	0.040105	0.033990	0.100123	0.128520	0.292898	0.455097	0.759333
0.272596	0.117547	0.054157	0.036094	0.033102	0.101314	0.131588	0.291257	0.449127	0.743957
0.290018	0.114967	0.050473	0.032356	0.032231	0.102525	0.134795	0.289570	0.443093	0.727798
0.308085	0.112624	0.046986	0.028882	0.031382	0.103762	0.138140	0.287864	0.437031	0.710940
0.326792	0.110513	0.043691	0.025662	0.030555	0.105030	0.141622	0.286165	0.430979	0.693469
0.346132	0.108633	0.040582	0.022686	0.029753	0.106337	0.145236	0.284499	0.424977	0.675473
0.366092	0.106979	0.037653	0.019945	0.028979	0.107687	0.148978	0.282887	0.419070	0.657046
0.386657	0.105552	0.034902	0.017430	0.028234	0.109085	0.152838	0.281354	0.413303	0.638280
0.407803	0.104349	0.032321	0.015131	0.027521	0.110538	0.156809	0.279919	0.407717	0.619272
0.429504	0.103370	0.029907	0.013040	0.026841	0.112046	0.160882	0.278602	0.402351	0.600115
0.451729	0.102615	0.027653	0.011149	0.026196	0.113614	0.165048	0.277423	0.397238	0.580896
0.474441	0.102082	0.025556	0.009450	0.025587	0.115240	0.169300	0.276400	0.392405	0.561696
0.497602	0.101768	0.023608	0.007935	0.025014	0.116924	0.173633	0.275549	0.387874	0.542589
0.521165	0.101670	0.021804	0.006596	0.024480	0.118664	0.178044	0.274886	0.383664	0.523641
0.545085	0.101781	0.020138	0.005424	0.023985	0.120460	0.182529	0.274425	0.379790	0.504912
0.569309	0.102097	0.018603	0.004412	0.023531	0.122306	0.187086	0.274175	0.376261	0.486456
0.593788	0.102610	0.017195	0.003551	0.023118	0.124201	0.191710	0.274144	0.373083	0.468319
0.618467	0.103313	0.015906	0.002833	0.022748	0.126139	0.196397	0.274333	0.370257	0.450545
0.643297	0.104198	0.014731	0.002251	0.022423	0.128113	0.201137	0.274743	0.367779	0.433169
0.668226	0.105258	0.013665	0.001797	0.022144	0.130116	0.205920	0.275367	0.365639	0.416227
0.693204	0.106483	0.012702	0.001463	0.021913	0.132136	0.210733	0.276198	0.363823	0.399747
0.718181	0.107866	0.011837	0.001243	0.021731	0.134164	0.215562	0.277224	0.362311	0.383756
0.743107	0.109399	0.011066	0.001128	0.021600	0.136185	0.220390	0.278428	0.361079	0.368277
0.767927	0.111075	0.010383	0.001113	0.021523	0.138189	0.225203	0.279792	0.360099	0.353328
0.792586	0.112889	0.009786	0.001191	0.021502	0.140164	0.229987	0.281293	0.359340	0.338924
0.817021	0.114835	0.009269	0.001355	0.021540	0.142100	0.234730	0.282907	0.358766	0.325074
0.841165	0.116909	0.008830	0.001599	0.021639	0.143990	0.239421	0.284604	0.358341	0.311782
0.864939	0.119106	0.008465	0.001916	0.021801	0.145830	0.244055	0.286354	0.358026	0.299048
0.888255	0.121423	0.008169	0.002302	0.022031	0.147616	0.248623	0.288130	0.357784	0.286865
0.911015	0.123855	0.007941	0.002748	0.022329	0.149347	0.253121	0.289905	0.357573	0.275226
0.933109	0.126396	0.007775	0.003251	0.022700	0.151021	0.257544	0.291658	0.357350	0.264116
0.954422	0.129040	0.007670	0.003804	0.023144	0.152636	0.261884	0.293369	0.357069	0.253519
0.974835	0.131778	0.007621	0.004401	0.023664	0.154191	0.266133	0.295019	0.356683	0.243416
0.994231	0.134602	0.007625	0.005037	0.024261	0.155682	0.270281	0.296589	0.356146	0.233787
1.012499	0.137504	0.007679	0.005708	0.024938	0.157107	0.274316	0.298056	0.355412	0.224610
1.029538	0.140475	0.007780	0.006408	0.025694	0.158464	0.278227	0.299399	0.354436	0.215862
1.045259	0.143512	0.007923	0.007133	0.026534	0.159755	0.282005	0.300594	0.353172	0.207519
1.059586	0.146610	0.008106	0.007876	0.027457	0.160987	0.285643	0.301618	0.351575	0.199555
1.072460	0.149768	0.008324	0.008634	0.028469	0.162166	0.289138	0.302451	0.349598	0.191944
1.083841	0.152986	0.008575	0.009401	0.029571	0.163306	0.292490	0.303070	0.347196	0.184657
1.093701	0.156263	0.008853	0.010174	0.030768	0.164417	0.295704	0.303451	0.344333	0.177669
1.102025	0.159602	0.009157	0.010948	0.032062	0.165510	0.298785	0.303571	0.340989	0.170956
1.108804	0.163001	0.009481	0.011721	0.033458	0.166593	0.301739	0.303412	0.337159	0.164494
1.114027	0.166462	0.009823	0.012490	0.034958	0.167675	0.304571	0.302957	0.332848	0.158263
1.117674	0.169981	0.010180	0.013252	0.036566	0.168763	0.307280	0.302194	0.328067	0.152241
1.119723	0.173554	0.010549	0.014007	0.038284	0.169865	0.309867	0.301113	0.322832	0.146411
1.120156	0.177177	0.010928	0.014752	0.040115	0.170994	0.312332	0.299706	0.317169	0.140763
1.118968	0.180840	0.011314	0.015487	0.042062	0.172163	0.314680	0.297976	0.311115	0.135289
1.116173	0.184534	0.011707	0.016211	0.044126	0.173389	0.316919	0.295936	0.304715	0.129985
1.111807	0.188249	0.012103	0.016924	0.046309	0.174688	0.319061	0.293608	0.298013	0.124850
1.105925	0.191974	0.012502	0.017624	0.048612	0.176075	0.321120	0.291023	0.291054	0.119887
1.098602	0.195699	0.012901	0.018312	0.051035	0.177563	0.323108	0.288215	0.283881	0.115102
1.089923	0.199418	0.013298	0.018986	0.053578	0.179165	0.325035	0.285220	0.276536	0.110504
1.079987	0.203127	0.013692	0.019646	0.056241	0.180889	0.326908	0.282072	0.269060	0.106102
1.068894	0.206826	0.014080	0.020290	0.059022	0.182742	0.328733	0.278806	0.261495	0.101902
1.056748	0.210517	0.014460	0.020918	0.061919	0.184728	0.330515	0.275459	0.253877	0.097912
1.043650	0.214206	0.014831	0.021528	0.064929	0.186850	0.332256	0.272067	0.246244	0.094136
1.029695	0.217898	0.015191	0.022119	0.068049	0.189108	0.333956	0.268665	0.238633	0.090579
1.014969	0.221597	0.015538	0.022690	0.071275	0.191499	0.335609	0.265288	0.231077	0.087241
0.999548	0.225306	0.015871	0.023239	0.074599	0.194018	0.337210	0.261967	0.223610	0.084126
0.983492	0.229025	0.016191	0.023768	0.078015	0.196658	0.338747	0.258731	0.216261	0.081234
0.966854	0.232750	0.016496	0.024274	0.081517	0.199411	0.340207	0.255605	0.209057	0.078567
0.949681	0.236477	0.016787	0.024758	0.085094	0.202263	0.341575	0.252612	0.202024	0.076125
0.932017	0.240202	0.017064	0.025220	0.088736	0.205202	0.342834	0.249773	0.195185	0.073907
0.913906	0.243919	0.017327	0.025661	0.092432	0.208210	0.343965	0.247104	0.188562	0.071911
0.895394	0.247623	0.017577	0.026080	0.096171	0.211270	0.344948	0.244620	0.182174	0.070136
0.876529	0.251308	0.017813	0.026478	0.099937	0.214362	0.345767	0.242334	0.176040	0.068577
0.857363	0.254969	0.018038	0.026856	0.103717	0.217464	0.346403	0.240254	0.170175	0.067231
0.837951	0.258602	0.018251	0.027213	0.107494	0.220554	0.346844	0.238388	0.164591	0.066092
0.818349	0.262204	0.018453	0.027551	0.111250	0.223606	0.347078	0.236737	0.159299	0.065155
0.798620	0.265774	0.018645	0.027870	0.114968	0.226595	0.347098	0.235299	0.154307	0.064412
0.778827	0.269311	0.018826	0.028171	0.118625	0.229494	0.346897	0.234072	0.149623	0.063856
0.759039	0.272816	0.018997	0.028454	0.122203	0.232275	0.346467	0.233048	0.145252	0.063480
0.739321	0.276289	0.019158	0.028720	0.125680	0.234909	0.345802	0.232216	0.141198	0.063274
0.719740	0.279730	0.019308	0.028969	0.129035	0.237367	0.344891	0.231564	0.137464	0.063227
0.700351	0.283136	0.019447	0.029199	0.132254	0.239618	0.343721	0.231075	0.134049	0.063331
0.681208	0.286504	0.019575	0.029411	0.135323	0.241630	0.342276	0.230732	0.130956	0.063573
0.662357	0.289825	0.019690	0.029605	0.138236	0.243373	0.340541	0.230517	0.128180	0.063943
0.643846	0.293090	0.019792	0.029779	0.140989	0.244817	0.338503	0.230412	0.125720	0.064427
0.625720	0.296286	0.019880	0.029932	0.143583	0.245930	0.336158	0.230403	0.123570	0.065012
0.608025	0.299401	0.019954	0.030063	0.146020	0.246686	0.333510	0.230476	0.121724	0.065685
0.590805	0.302423	0.020014	0.030169	0.148309	0.247056	0.330571	0.230621	0.120175	0.066432
0.574099	0.305341	0.020058	0.030250	0.150467	0.247021	0.327359	0.230824	0.118911	0.067236
0.557941	0.308148	0.020089	0.030302	0.152513	0.246566	0.323894	0.231073	0.117922	0.068084
0.542365	0.310835	0.020105	0.030325	0.154471	0.245684	0.320198	0.231352	0.117195	0.068958
0.527399	0.313398	0.020107	0.030316	0.156362	0.244375	0.316291	0.231645	0.116715	0.069844
0.513070	0.315834	0.020097	0.030275	0.158208	0.242648	0.312190	0.231933	0.116465	0.070725
0.499401	0.318143	0.020074	0.030201	0.160028	0.240519	0.307910	0.232192	0.116428	0.071588
0.486413	0.320323	0.020041	0.030094	0.161843	0.238003	0.303461	0.232399	0.116583	0.072420
0.474119	0.322377	0.019997	0.029955	0.163673	0.235119	0.298851	0.232526	0.116911	0.073210
0.462533	0.324305	0.019944	0.029785	0.165536	0.231880	0.294086	0.232547	0.117390	0.073948
0.451658	0.326107	0.019882	0.029586	0.167452	0.228301	0.289168	0.232432	0.117996	0.074626
0.441500	0.327782	0.019812	0.029357	0.169438	0.224397	0.284101	0.232154	0.118707	0.075234
0.432064	0.329324	0.019735	0.029103	0.171512	0.220185	0.278896	0.231688	0.119500	0.075766
0.423363	0.330728	0.019651	0.028823	0.173688	0.215686	0.273562	0.231007	0.120351	0.076213
0.415414	0.331984	0.019560	0.028521	0.175982	0.210922	0.268117	0.230089	0.121233	0.076569
0.408240	0.333081	0.019463	0.028199	0.178404	0.205919	0.262577	0.228924	0.122121	0.076830
0.401864	0.334010	0.019360	0.027858	0.180964	0.200705	0.256956	0.227507	0.122986	0.076995
0.396309	0.334761	0.019251	0.027503	0.183668	0.195308	0.251269	0.225843	0.123797	0.077066
0.391591	0.335325	0.019137	0.027136	0.186523	0.189757	0.245525	0.223938	0.124525	0.077049
0.387723	0.335694	0.019018	0.026761	0.189531	0.184082	0.239733	0.221796	0.125139	0.076951
0.384712	0.335861	0.018893	0.026381	0.192692	0.178310	0.233899	0.219424	0.125612	0.076780
0.382563	0.335820	0.018764	0.025999	0.196004	0.172468	0.228027	0.216823	0.125920	0.076545
0.381274	0.335569	0.018629	0.025617	0.199464	0.166583	0.222121	0.213997	0.126041	0.076252
0.380840	0.335106	0.018490	0.025240	0.203065	0.160679	0.216185	0.210948	0.125963	0.075908
0.381254	0.334432	0.018347	0.024867	0.206800	0.154777	0.210227	0.207681	0.125676	0.075521
0.382506	0.333553	0.018199	0.024503	0.210659	0.148898	0.204252	0.204199	0.125171	0.075094
0.384583	0.332476	0.018049	0.024148	0.214628	0.143058	0.198268	0.200504	0.124447	0.074632
0.387471	0.331213	0.017897	0.023803	0.218691	0.137274	0.192282	0.196599	0.123506	0.074137
0.391154	0.329773	0.017744	0.023471	0.222830	0.131560	0.186303	0.192486	0.122353	0.073612
0.395611	0.328166	0.017590	0.023152	0.227024	0.125928	0.180342	0.188174	0.120998	0.073061
0.400817	0.326398	0.017436	0.022847	0.231250	0.120389	0.174411	0.183676	0.119454	0.072486
0.406739	0.324471	0.017284	0.022557	0.235484	0.114956	0.168522	0.179009	0.117734	0.071889
0.413343	0.322388	0.017132	0.022283	0.239703	0.109636	0.162688	0.174196	0.115850	0.071272
0.420585	0.320146	0.016983	0.022025	0.243884	0.104440	0.156919	0.169260	0.113815	0.070638
0.428416	0.317746	0.016836	0.021786	0.248002	0.099375	0.151224	0.164225	0.111640	0.069990
0.436783	0.315189	0.016690	0.021564	0.252030	0.094449	0.145614	0.159112	0.109334	0.069328
0.445626	0.312482	0.016546	0.021363	0.255940	0.089668	0.140095	0.153944	0.106909	0.068656
0.454879	0.309632	0.016403	0.021182	0.259705	0.085039	0.134677	0.148741	0.104373	0.067975
0.464472	0.306653	0.016262	0.021022	0.263299	0.080566	0.129369	0.143523	0.101737	0.067288
0.474332	0.303563	0.016121	0.020884	0.266696	0.076254	0.124177	0.138308	0.099008	0.066597
0.484388	0.300383	0.015981	0.020768	0.269871	0.072108	0.119108	0.133114	0.096199	0.065903
0.494569	0.297134	0.015842	0.020674	0.272796	0.068130	0.114167	0.127957	0.093322	0.065210
0.504808	0.293842	0.015705	0.020604	0.275449	0.064325	0.109360	0.122852	0.090390	0.064517
0.515046	0.290529	0.015570	0.020558	0.277806	0.060695	0.104689	0.117812	0.087416	0.063828
0.525224	0.287219	0.015437	0.020536	0.279847	0.057240	0.100158	0.112850	0.084413	0.063142
0.535292	0.283932	0.015307	0.020539	0.281552	0.053964	0.095773	0.107977	0.081391	0.062460
0.545200	0.280687	0.015181	0.020567	0.282897	0.050865	0.091538	0.103204	0.078362	0.061781
0.554900	0.277498	0.015057	0.020620	0.283864	0.047945	0.087459	0.098543	0.075334	0.061104
0.564342	0.274380	0.014937	0.020700	0.284440	0.045200	0.083541	0.094002	0.072317	0.060427
0.573476	0.271341	0.014821	0.020805	0.284622	0.042631	0.079788	0.089590	0.069320	0.059750
0.582243	0.268390	0.014708	0.020937	0.284415	0.040234	0.076203	0.085312	0.066351	0.059069
0.590582	0.265532	0.014599	0.021096	0.283831	0.038007	0.072787	0.081176	0.063416	0.058383
0.598430	0.262768	0.014494	0.021281	0.282881	0.035946	0.069542	0.077186	0.060523	0.057692
0.605727	0.260098	0.014393	0.021493	0.281584	0.034047	0.066469	0.073345	0.057676	0.056993
0.612423	0.257517	0.014294	0.021729	0.279962	0.032307	0.063570	0.069656	0.054881	0.056287
0.618480	0.255020	0.014199	0.021989	0.278042	0.030722	0.060844	0.066118	0.052142	0.055573
0.623877	0.252601	0.014106	0.022273	0.275853	0.029286	0.058290	0.062734	0.049464	0.054850
0.628610	0.250254	0.014015	0.022578	0.273421	0.027996	0.055906	0.059502	0.046851	0.054121
0.632689	0.247973	0.013924	0.022903	0.270778	0.026846	0.053690	0.056421	0.044307	0.053385
0.636139	0.245755	0.013833	0.023245	0.267951	0.025834	0.051638	0.053489	0.041836	0.052644
0.638997	0.243599	0.013741	0.023603	0.264971	0.024953	0.049746	0.050704	0.039441	0.051898
0.641305	0.241505	0.013647	0.023975	0.261871	0.024199	0.048011	0.048066	0.037125	0.051146
0.643107	0.239476	0.013551	0.024358	0.258685	0.023566	0.046428	0.045573	0.034892	0.050390
0.644444	0.237519	0.013452	0.024748	0.255447	0.023049	0.044992	0.043223	0.032742	0.049628
0.645353	0.235643	0.013350	0.025143	0.252189	0.022642	0.043697	0.041018	0.030678	0.048861
0.645864	0.233857	0.013243	0.025540	0.248941	0.022339	0.042540	0.038955	0.028700	0.048091
0.646006	0.232175	0.013133	0.025934	0.245733	0.022134	0.041514	0.037038	0.026810	0.047318
0.645812	0.230613	0.013018	0.026323	0.242592	0.022018	0.040615	0.035265	0.025008	0.046547
0.645319	0.229186	0.012899	0.026703	0.239547	0.021987	0.039838	0.033638	0.023295	0.045781
0.644573	0.227912	0.012775	0.027071	0.236621	0.022032	0.039181	0.032157	0.021669	0.045022
0.643629	0.226808	0.012648	0.027423	0.233836	0.022146	0.038639	0.030825	0.020131	0.044277
0.642549	0.225888	0.012517	0.027758	0.231213	0.022324	0.038210	0.029641	0.018679	0.043547
0.641403	0.225165	0.012381	0.028073	0.228772	0.022558	0.037890	0.028606	0.017313	0.042838
0.640262	0.224650	0.012242	0.028367	0.226532	0.022844	0.037675	0.027719	0.016031	0.042150
0.639198	0.224350	0.012097	0.028638	0.224514	0.023175	0.037562	0.026981	0.014832	0.041487
0.638279	0.224275	0.011949	0.028886	0.222737	0.023547	0.037547	0.026389	0.013713	0.040851
0.637566	0.224437	0.011795	0.029112	0.221218	0.023954	0.037628	0.025944	0.012674	0.040242
0.637113	0.224847	0.011637	0.029316	0.219973	0.024393	0.037799	0.025644	0.011711	0.039662
0.636963	0.225522	0.011474	0.029499	0.219018	0.024858	0.038058	0.025487	0.010824	0.039110
0.637151	0.226482	0.011306	0.029663	0.218367	0.025347	0.038399	0.025473	0.010009	0.038587
0.637704	0.227746	0.011135	0.029808	0.218032	0.025857	0.038819	0.025600	0.009264	0.038093
0.638640	0.229336	0.010960	0.029938	0.218024	0.026386	0.039312	0.025867	0.008588	0.037628
0.639970	0.231275	0.010783	0.030052	0.218355	0.026933	0.039875	0.026272	0.007977	0.037194
0.641698	0.233583	0.010605	0.030154	0.219034	0.027495	0.040502	0.026815	0.007429	0.036791
0.643820	0.236279	0.010426	0.030243	0.220068	0.028071	0.041188	0.027496	0.006942	0.036420
0.646325	0.239378	0.010248	0.030323	0.221465	0.028659	0.041928	0.028312	0.006513	0.036085
0.649193	0.242893	0.010071	0.030393	0.223227	0.029258	0.042717	0.029263	0.006140	0.035786
0.652401	0.246834	0.009895	0.030456	0.225356	0.029866	0.043551	0.030348	0.005820	0.035525
0.655923	0.251207	0.009722	0.030511	0.227851	0.030480	0.044424	0.031565	0.005552	0.035303
0.659729	0.256017	0.009551	0.030560	0.230713	0.031097	0.045333	0.032915	0.005334	0.035120
0.663789	0.261268	0.009382	0.030603	0.233940	0.031716	0.046274	0.034394	0.005164	0.034978
0.668074	0.266962	0.009217	0.030641	0.237535	0.032332	0.047242	0.036001	0.005039	0.034877
0.672551	0.273100	0.009054	0.030672	0.241499	0.032942	0.048233	0.037733	0.004958	0.034818
0.677182	0.279684	0.008893	0.030697	0.245829	0.033544	0.049241	0.039587	0.004918	0.034799
0.681922	0.286712	0.008736	0.030716	0.250524	0.034134	0.050263	0.041559	0.004917	0.034823
0.686723	0.294183	0.008581	0.030726	0.255577	0.034709	0.051292	0.043646	0.004955	0.034888
0.691535	0.302092	0.008428	0.030727	0.260982	0.035267	0.052326	0.045843	0.005027	0.034996
0.696309	0.310433	0.008279	0.030719	0.266730	0.035807	0.053359	0.048146	0.005133	0.035144
0.700999	0.319196	0.008134	0.030700	0.272811	0.036326	0.054386	0.050549	0.005270	0.035334
0.705563	0.328371	0.007992	0.030669	0.279212	0.036823	0.055404	0.053049	0.005437	0.035563
0.709957	0.337946	0.007855	0.030626	0.285916	0.037296	0.056406	0.055638	0.005632	0.035831
0.714138	0.347907	0.007722	0.030569	0.292907	0.037745	0.057387	0.058312	0.005853	0.036137
0.718061	0.358235	0.007594	0.030498	0.300162	0.038168	0.058340	0.061062	0.006100	0.036479
0.721677	0.368912	0.007471	0.030413	0.307662	0.038562	0.059259	0.063884	0.006370	0.036855
0.724927	0.379911	0.007354	0.030312	0.315387	0.038927	0.060138	0.066769	0.006663	0.037264
0.727752	0.391207	0.007243	0.030198	0.323316	0.039260	0.060970	0.069710	0.006976	0.037703
0.730091	0.402769	0.007137	0.030072	0.331429	0.039558	0.061750	0.072699	0.007310	0.038172
0.731889	0.414565	0.007036	0.029938	0.339706	0.039819	0.062473	0.075726	0.007662	0.038670
0.733103	0.426555	0.006941	0.029797	0.348123	0.040041	0.063136	0.078781	0.008031	0.039195
0.733706	0.438701	0.006851	0.029652	0.356658	0.040221	0.063737	0.081854	0.008417	0.039747
0.733682	0.450963	0.006766	0.029504	0.365290	0.040359	0.064274	0.084935	0.008819	0.040325
0.733033	0.463311	0.006686	0.029357	0.373997	0.040454	0.064748	0.088011	0.009235	0.040930
0.731773	0.475727	0.006611	0.029210	0.382757	0.040510	0.065160	0.091070	0.009664	0.041560
0.729925	0.488205	0.006540	0.029067	0.391553	0.040529	0.065511	0.094099	0.010106	0.042213
0.727516	0.500749	0.006474	0.028927	0.400373	0.040515	0.065803	0.097085	0.010560	0.042890
0.724572	0.513359	0.006412	0.028792	0.409205	0.040474	0.066035	0.100017	0.011025	0.043587
0.721113	0.526038	0.006355	0.028664	0.418043	0.040409	0.066209	0.102883	0.011499	0.044301
0.717154	0.538780	0.006301	0.028542	0.426885	0.040325	0.066325	0.105675	0.011982	0.045031
0.712707	0.551582	0.006251	0.028428	0.435740	0.040227	0.066386	0.108383	0.012471	0.045773
0.707790	0.564438	0.006203	0.028323	0.444627	0.040118	0.066396	0.111001	0.012966	0.046523
0.702426	0.577347	0.006158	0.028227	0.453569	0.040004	0.066361	0.113521	0.013465	0.047278
0.696651	0.590311	0.006116	0.028141	0.462590	0.039887	0.066286	0.115933	0.013966	0.048034
0.690515	0.603338	0.006075	0.028065	0.471712	0.039770	0.066178	0.118227	0.014468	0.048790
0.684077	0.616435	0.006035	0.027999	0.480960	0.039659	0.066042	0.120392	0.014970	0.049543
0.677407	0.629608	0.005996	0.027944	0.490353	0.039556	0.065885	0.122417	0.015471	0.050293
0.670583	0.642860	0.005957	0.027901	0.499908	0.039464	0.065711	0.124290	0.015971	0.051039
0.663685	0.656187	0.005918	0.027868	0.509635	0.039389	0.065523	0.126002	0.016469	0.051781
0.656793	0.669584	0.005878	0.027845	0.519544	0.039333	0.065326	0.127544	0.016964	0.052521
0.649982	0.683045	0.005837	0.027831	0.529634	0.039300	0.065122	0.128911	0.017455	0.053259
0.643321	0.696562	0.005796	0.027825	0.539904	0.039295	0.064913	0.130094	0.017944	0.053994
0.636871	0.710131	0.005752	0.027828	0.550342	0.039322	0.064702	0.131090	0.018428	0.054727
0.630687	0.723747	0.005707	0.027837	0.560934	0.039382	0.064492	0.131900	0.018908	0.055456
0.624812	0.737401	0.005660	0.027853	0.571655	0.039479	0.064286	0.132533	0.019384	0.056182
0.619282	0.751081	0.005610	0.027875	0.582477	0.039616	0.064087	0.133003	0.019856	0.056903
0.614128	0.764776	0.005558	0.027903	0.593369	0.039795	0.063898	0.133329	0.020324	0.057619
0.609372	0.778479	0.005503	0.027937	0.604298	0.040016	0.063724	0.133529	0.020790	0.058333
0.605031	0.792190	0.005445	0.027976	0.615233	0.040280	0.063566	0.133622	0.021253	0.059044
0.601117	0.805912	0.005385	0.028020	0.626144	0.040588	0.063428	0.133625	0.021713	0.059755
0.597629	0.819657	0.005323	0.028067	0.636995	0.040939	0.063311	0.133555	0.022171	0.060466
0.594561	0.833435	0.005259	0.028118	0.647747	0.041333	0.063217	0.133426	0.022626	0.061178
0.591897	0.847256	0.005193	0.028171	0.658356	0.041767	0.063145	0.133254	0.023078	0.061891
0.589615	0.861127	0.005127	0.028225	0.668778	0.042240	0.063096	0.133053	0.023526	0.062605
0.587686	0.875048	0.005060	0.028280	0.678964	0.042751	0.063070	0.132836	0.023970	0.063318
0.586081	0.889018	0.004993	0.028332	0.688863	0.043296	0.063065	0.132615	0.024410	0.064030
0.584769	0.903039	0.004926	0.028382	0.698424	0.043875	0.063082	0.132403	0.024844	0.064738
0.583722	0.917121	0.004860	0.028427	0.707596	0.044485	0.063120	0.132209	0.025271	0.065440
0.582914	0.931276	0.004795	0.028468	0.716331	0.045124	0.063180	0.132044	0.025690	0.066132
0.582325	0.945512	0.004731	0.028504	0.724582	0.045791	0.063262	0.131917	0.026099	0.066812
0.581938	0.959832	0.004668	0.028537	0.732309	0.046486	0.063369	0.131834	0.026497	0.067478
0.581741	0.974229	0.004607	0.028566	0.739480	0.047206	0.063501	0.131803	0.026881	0.068126
0.581726	0.988687	0.004549	0.028595	0.746068	0.047952	0.063662	0.131829	0.027249	0.068755
0.581883	1.003176	0.004493	0.028624	0.752053	0.048722	0.063852	0.131918	0.027600	0.069364
0.582202	1.017657	0.004439	0.028656	0.757429	0.049513	0.064074	0.132072	0.027933	0.069950
0.582663	1.032084	0.004389	0.028691	0.762202	0.050323	0.064328	0.132294	0.028244	0.070512
0.583246	1.046398	0.004342	0.028730	0.766396	0.051150	0.064615	0.132582	0.028533	0.071046
0.583926	1.060530	0.004299	0.028774	0.770037	0.051988	0.064934	0.132934	0.028799	0.071550
0.584681	1.074400	0.004259	0.028823	0.773162	0.052836	0.065284	0.133347	0.029040	0.072020
0.585494	1.087921	0.004224	0.028877	0.775824	0.053688	0.065663	0.133815	0.029256	0.072450
0.586354	1.101008	0.004194	0.028935	0.778089	0.054542	0.066069	0.134330	0.029445	0.072836
0.587258	1.113582	0.004168	0.028998	0.780027	0.055395	0.066500	0.134883	0.029606	0.073172
0.588203	1.125575	0.004146	0.029064	0.781708	0.056242	0.066954	0.135464	0.029737	0.073455
0.589183	1.136930	0.004130	0.029132	0.783194	0.057082	0.067430	0.136063	0.029838	0.073682
0.590189	1.147599	0.004118	0.029201	0.784540	0.057911	0.067924	0.136667	0.029907	0.073852
0.591208	1.157535	0.004111	0.029269	0.785790	0.058728	0.068435	0.137264	0.029945	0.073967
0.592228	1.166683	0.004110	0.029334	0.786980	0.059531	0.068961	0.137839	0.029952	0.074031
0.593240	1.174987	0.004114	0.029396	0.788134	0.060317	0.069500	0.138377	0.029928	0.074047
0.594234	1.182390	0.004123	0.029453	0.789268	0.061088	0.070050	0.138861	0.029875	0.074020
0.595198	1.188848	0.004137	0.029505	0.790394	0.061841	0.070610	0.139272	0.029793	0.073954
0.596115	1.194335	0.004157	0.029551	0.791525	0.062576	0.071180	0.139595	0.029684	0.073853
0.596963	1.198848	0.004183	0.029591	0.792674	0.063293	0.071757	0.139813	0.029548	0.073720
0.597718	1.202403	0.004215	0.029625	0.793860	0.063991	0.072342	0.139909	0.029388	0.073557
0.598352	1.205037	0.004252	0.029654	0.795099	0.064671	0.072933	0.139871	0.029203	0.073366
0.598841	1.206795	0.004295	0.029678	0.796407	0.065331	0.073529	0.139687	0.028997	0.073148
0.599162	1.207729	0.004344	0.029697	0.797801	0.065969	0.074129	0.139348	0.028767	0.072902
0.599298	1.207894	0.004399	0.029712	0.799296	0.066583	0.074730	0.138845	0.028516	0.072631
0.599236	1.207339	0.004459	0.029723	0.800906	0.067170	0.075329	0.138171	0.028244	0.072334
0.598964	1.206113	0.004524	0.029730	0.802637	0.067728	0.075923	0.137318	0.027950	0.072014
0.598470	1.204252	0.004594	0.029732	0.804494	0.068254	0.076507	0.136281	0.027637	0.071672
0.597736	1.201783	0.004668	0.029732	0.806473	0.068746	0.077078	0.135053	0.027305	0.071310
0.596740	1.198721	0.004747	0.029729	0.808561	0.069204	0.077634	0.133634	0.026958	0.070930
0.595459	1.195065	0.004830	0.029725	0.810736	0.069626	0.078170	0.132025	0.026598	0.070536
0.593871	1.190809	0.004916	0.029719	0.812963	0.070012	0.078683	0.130232	0.026228	0.070129
0.591965	1.185944	0.005006	0.029711	0.815197	0.070364	0.079172	0.128264	0.025849	0.069712
0.589734	1.180467	0.005099	0.029702	0.817383	0.070682	0.079631	0.126135	0.025465	0.069286
0.587181	1.174385	0.005194	0.029690	0.819459	0.070969	0.080060	0.123859	0.025078	0.068852
0.584309	1.167714	0.005291	0.029674	0.821359	0.071225	0.080456	0.121450	0.024690	0.068411
0.581125	1.160483	0.005391	0.029654	0.823017	0.071454	0.080816	0.118922	0.024302	0.067963
0.577631	1.152732	0.005492	0.029628	0.824379	0.071657	0.081140	0.116287	0.023915	0.067509
0.573824	1.144508	0.005595	0.029596	0.825403	0.071836	0.081427	0.113556	0.023532	0.067051
0.569695	1.135862	0.005699	0.029559	0.826055	0.071992	0.081676	0.110739	0.023152	0.066589
0.565232	1.126849	0.005805	0.029515	0.826304	0.072126	0.081886	0.107846	0.022778	0.066123
0.560423	1.117518	0.005911	0.029466	0.826117	0.072239	0.082056	0.104885	0.022408	0.065653
0.555254	1.107921	0.006019	0.029411	0.825460	0.072330	0.082184	0.101866	0.022044	0.065179
0.549716	1.098104	0.006127	0.029349	0.824300	0.072399	0.082268	0.098800	0.021686	0.064699
0.543801	1.088112	0.006235	0.029279	0.822600	0.072445	0.082305	0.095695	0.021333	0.064211
0.537506	1.077988	0.006343	0.029200	0.820321	0.072464	0.082290	0.092564	0.020985	0.063711
0.530830	1.067766	0.006451	0.029111	0.817427	0.072455	0.082219	0.089416	0.020643	0.063196
0.523778	1.057475	0.006558	0.029009	0.813891	0.072415	0.082087	0.086264	0.020306	0.062662
0.516354	1.047131	0.006665	0.028893	0.809700	0.072341	0.081894	0.083120	0.019974	0.062105
0.508561	1.036742	0.006771	0.028761	0.804848	0.072232	0.081635	0.079994	0.019647	0.061522
0.500398	1.026303	0.006876	0.028614	0.799333	0.072091	0.081313	0.076897	0.019323	0.060912
0.491862	1.015808	0.006980	0.028452	0.793161	0.071919	0.080928	0.073842	0.019003	0.060274
0.482947	1.005252	0.007084	0.028274	0.786352	0.071719	0.080486	0.070836	0.018687	0.059609
0.473651	0.994636	0.007186	0.028082	0.778944	0.071496	0.079990	0.067889	0.018374	0.058917
0.463975	0.983969	0.007288	0.027878	0.770992	0.071256	0.079444	0.065009	0.018066	0.058202
0.453928	0.973275	0.007389	0.027662	0.762550	0.071001	0.078854	0.062202	0.017762	0.057465
0.443527	0.962589	0.007489	0.027436	0.753681	0.070738	0.078224	0.059473	0.017464	0.056711
0.432798	0.951964	0.007588	0.027200	0.744455	0.070470	0.077556	0.056827	0.017172	0.055943
0.421772	0.941462	0.007686	0.026954	0.734955	0.070203	0.076853	0.054268	0.016888	0.055163
0.410484	0.931147	0.007782	0.026700	0.725265	0.069939	0.076118	0.051800	0.016613	0.054373
0.398970	0.921084	0.007876	0.026436	0.715471	0.069680	0.075352	0.049424	0.016346	0.053577
0.387262	0.911332	0.007969	0.026163	0.705652	0.069428	0.074559	0.047143	0.016088	0.052774
0.375393	0.901941	0.008059	0.025881	0.695884	0.069184	0.073740	0.044959	0.015841	0.051969
0.363395	0.892959	0.008147	0.025590	0.686236	0.068948	0.072898	0.042872	0.015603	0.051164
0.351300	0.884427	0.008234	0.025292	0.676777	0.068720	0.072037	0.040882	0.015375	0.050362
0.339141	0.876381	0.008318	0.024988	0.667570	0.068500	0.071160	0.038990	0.015158	0.049568
0.326951	0.868851	0.008400	0.024678	0.658677	0.068290	0.070271	0.037195	0.014953	0.048785
0.314761	0.861862	0.008481	0.024367	0.650154	0.068089	0.069374	0.035496	0.014759	0.048017
0.302604	0.855425	0.008560	0.024054	0.642058	0.067902	0.068475	0.033890	0.014577	0.047267
0.290511	0.849543	0.008638	0.023743	0.634441	0.067730	0.067578	0.032377	0.014407	0.046538
0.278511	0.844210	0.008716	0.023436	0.627351	0.067579	0.066688	0.030952	0.014251	0.045833
0.266633	0.839414	0.008793	0.023133	0.620831	0.067452	0.065810	0.029615	0.014107	0.045154
0.254905	0.835137	0.008869	0.022838	0.614923	0.067353	0.064945	0.028361	0.013976	0.044505
0.243352	0.831362	0.008946	0.022551	0.609664	0.067284	0.064097	0.027189	0.013857	0.043888
0.231999	0.828071	0.009022	0.022273	0.605084	0.067250	0.063268	0.026095	0.013751	0.043305
0.220867	0.825251	0.009099	0.022006	0.601205	0.067252	0.062460	0.025077	0.013657	0.042758
0.209977	0.822894	0.009177	0.021749	0.598044	0.067292	0.061673	0.024130	0.013575	0.042248
0.199346	0.820998	0.009255	0.021504	0.595605	0.067371	0.060911	0.023253	0.013503	0.041778
0.188990	0.819561	0.009333	0.021271	0.593888	0.067490	0.060172	0.022442	0.013440	0.041347
0.178921	0.818582	0.009413	0.021050	0.592884	0.067649	0.059459	0.021694	0.013386	0.040957
0.169150	0.818054	0.009493	0.020840	0.592575	0.067849	0.058772	0.021006	0.013340	0.040607
0.159684	0.817964	0.009574	0.020643	0.592938	0.068091	0.058112	0.020375	0.013301	0.040298
0.150530	0.818292	0.009657	0.020458	0.593944	0.068378	0.057480	0.019799	0.013267	0.040029
0.141691	0.819013	0.009742	0.020286	0.595559	0.068712	0.056878	0.019274	0.013239	0.039799
0.133167	0.820097	0.009828	0.020128	0.597746	0.069097	0.056305	0.018798	0.013217	0.039607
0.124960	0.821515	0.009917	0.019985	0.600460	0.069536	0.055762	0.018369	0.013198	0.039451
0.117068	0.823232	0.010008	0.019859	0.603652	0.070033	0.055248	0.017984	0.013184	0.039328
0.109490	0.825219	0.010101	0.019750	0.607264	0.070590	0.054762	0.017640	0.013174	0.039238
0.102221	0.827448	0.010197	0.019659	0.611232	0.071210	0.054301	0.017334	0.013167	0.039179
0.095258	0.829893	0.010294	0.019587	0.615494	0.071895	0.053865	0.017064	0.013163	0.039148
0.088596	0.832529	0.010393	0.019534	0.619989	0.072644	0.053452	0.016826	0.013162	0.039146
0.082232	0.835323	0.010494	0.019501	0.624662	0.073461	0.053060	0.016620	0.013164	0.039170
0.076158	0.838236	0.010595	0.019487	0.629459	0.074345	0.052689	0.016443	0.013170	0.039220
0.070371	0.841224	0.010697	0.019492	0.634323	0.075297	0.052336	0.016292	0.013180	0.039294
0.064865	0.844240	0.010799	0.019517	0.639196	0.076317	0.052001	0.016165	0.013194	0.039391
0.059633	0.847245	0.010901	0.019560	0.644025	0.077404	0.051683	0.016062	0.013214	0.039510
0.054671	0.850205	0.011002	0.019621	0.648762	0.078557	0.051382	0.015980	0.013239	0.039648
0.049972	0.853100	0.011102	0.019699	0.653364	0.079775	0.051097	0.015918	0.013271	0.039804
0.045530	0.855918	0.011201	0.019795	0.657788	0.081056	0.050826	0.015874	0.013308	0.039974
0.041338	0.858657	0.011298	0.019909	0.661997	0.082401	0.050568	0.015846	0.013352	0.040156
0.037388	0.861319	0.011394	0.020040	0.665952	0.083806	0.050321	0.015833	0.013403	0.040346
0.033676	0.863908	0.011488	0.020188	0.669621	0.085270	0.050082	0.015831	0.013459	0.040540
0.030192	0.866426	0.011580	0.020352	0.672979	0.086790	0.049849	0.015840	0.013521	0.040737
0.026931	0.868876	0.011668	0.020531	0.676002	0.088363	0.049617	0.015856	0.013588	0.040934
0.023884	0.871261	0.011752	0.020725	0.678669	0.089984	0.049382	0.015879	0.013661	0.041128
0.021044	0.873586	0.011832	0.020932	0.680962	0.091649	0.049141	0.015905	0.013737	0.041317
0.018403	0.875855	0.011907	0.021150	0.682873	0.093352	0.048889	0.015933	0.013817	0.041500
0.015952	0.878068	0.011976	0.021378	0.684406	0.095085	0.048623	0.015960	0.013899	0.041675
0.013683	0.880221	0.012039	0.021614	0.685569	0.096841	0.048338	0.015984	0.013983	0.041842
0.011587	0.882300	0.012095	0.021856	0.686370	0.098611	0.048032	0.016004	0.014069	0.041998
0.009656	0.884284	0.012145	0.022103	0.686811	0.100388	0.047705	0.016017	0.014154	0.042143
0.007882	0.886154	0.012187	0.022353	0.686894	0.102165	0.047355	0.016024	0.014240	0.042274
0.006255	0.887894	0.012222	0.022607	0.686619	0.103935	0.046983	0.016023	0.014326	0.042391
0.004767	0.889492	0.012250	0.022862	0.685990	0.105694	0.046590	0.016016	0.014413	0.042493
0.003410	0.890943	0.012271	0.023118	0.685020	0.107436	0.046177	0.016002	0.014501	0.042579
0.002176	0.892242	0.012285	0.023374	0.683728	0.109156	0.045743	0.015980	0.014591	0.042648
0.001057	0.893387	0.012292	0.023628	0.682132	0.110851	0.045290	0.015952	0.014685	0.042700
0.000046	0.894378	0.012291	0.023879	0.680251	0.112515	0.044817	0.015918	0.014781	0.042734
-0.000864	0.895218	0.012283	0.024126	0.678107	0.114143	0.044323	0.015878	0.014882	0.042749
-0.001680	0.895915	0.012267	0.024367	0.675726	0.115728	0.043810	0.015833	0.014987	0.042746
-0.002407	0.896483	0.012243	0.024601	0.673140	0.117265	0.043277	0.015783	0.015097	0.042723
-0.003052	0.896940	0.012211	0.024826	0.670375	0.118751	0.042726	0.015728	0.015212	0.042682
-0.003620	0.897301	0.012170	0.025042	0.667456	0.120181	0.042158	0.015669	0.015331	0.042622
-0.004117	0.897578	0.012122	0.025249	0.664397	0.121555	0.041574	0.015606	0.015454	0.042544
-0.004548	0.897771	0.012066	0.025444	0.661207	0.122871	0.040978	0.015539	0.015582	0.042448
-0.004919	0.897873	0.012002	0.025628	0.657892	0.124127	0.040372	0.015467	0.015713	0.042336
-0.005233	0.897870	0.011932	0.025801	0.654461	0.125322	0.039759	0.015392	0.015847	0.042208
-0.005495	0.897749	0.011856	0.025960	0.650928	0.126452	0.039141	0.015313	0.015984	0.042067
-0.005710	0.897504	0.011774	0.026105	0.647314	0.127513	0.038522	0.015229	0.016123	0.041916
-0.005881	0.897136	0.011687	0.026236	0.643642	0.128498	0.037903	0.015141	0.016265	0.041757
-0.006010	0.896660	0.011597	0.026351	0.639935	0.129402	0.037287	0.015050	0.016408	0.041592
-0.006103	0.896103	0.011503	0.026450	0.636218	0.130219	0.036677	0.014953	0.016554	0.041422
-0.006162	0.895503	0.011406	0.026532	0.632522	0.130946	0.036074	0.014853	0.016703	0.041249
-0.006190	0.894906	0.011306	0.026598	0.628891	0.131579	0.035480	0.014748	0.016854	0.041073
-0.006189	0.894358	0.011204	0.026648	0.625380	0.132119	0.034898	0.014639	0.017009	0.040895
-0.006164	0.893900	0.011099	0.026682	0.622053	0.132567	0.034329	0.014527	0.017169	0.040714
-0.006115	0.893562	0.010993	0.026701	0.618973	0.132927	0.033774	0.014410	0.017333	0.040530
-0.006047	0.893368	0.010884	0.026706	0.616200	0.133199	0.033235	0.014291	0.017504	0.040343
-0.005961	0.893341	0.010773	0.026697	0.613792	0.133387	0.032711	0.014169	0.017680	0.040153
-0.005860	0.893505	0.010661	0.026675	0.611809	0.133490	0.032205	0.014045	0.017864	0.039963
-0.005745	0.893886	0.010547	0.026640	0.610306	0.133508	0.031717	0.013918	0.018055	0.039774
-0.005618	0.894511	0.010432	0.026592	0.609334	0.133442	0.031247	0.013789	0.018254	0.039588
-0.005481	0.895403	0.010317	0.026532	0.608936	0.133292	0.030796	0.013658	0.018462	0.039407
-0.005335	0.896575	0.010202	0.026459	0.609152	0.133062	0.030365	0.013527	0.018679	0.039233
-0.005181	0.898033	0.010088	0.026374	0.610014	0.132754	0.029954	0.013395	0.018906	0.039070
-0.005020	0.899775	0.009976	0.026278	0.611553	0.132375	0.029563	0.013263	0.019145	0.038918
-0.004852	0.901793	0.009866	0.026174	0.613790	0.131930	0.029192	0.013132	0.019393	0.038779
-0.004678	0.904072	0.009759	0.026061	0.616741	0.131427	0.028841	0.013000	0.019653	0.038655
-0.004498	0.906601	0.009656	0.025942	0.620415	0.130875	0.028507	0.012869	0.019924	0.038545
-0.004313	0.909377	0.009556	0.025820	0.624821	0.130281	0.028192	0.012739	0.020206	0.038451
-0.004123	0.912407	0.009461	0.025695	0.629963	0.129651	0.027893	0.012610	0.020500	0.038373
-0.003927	0.915707	0.009370	0.025569	0.635843	0.128992	0.027610	0.012482	0.020804	0.038311
-0.003726	0.919292	0.009284	0.025444	0.642459	0.128307	0.027342	0.012355	0.021121	0.038265
-0.003518	0.923173	0.009203	0.025321	0.649801	0.127602	0.027090	0.012229	0.021448	0.038235
-0.003302	0.927354	0.009126	0.025200	0.657854	0.126880	0.026853	0.012104	0.021786	0.038221
-0.003078	0.931836	0.009054	0.025083	0.666593	0.126147	0.026631	0.011981	0.022135	0.038225
-0.002845	0.936615	0.008987	0.024969	0.675986	0.125408	0.026426	0.011858	0.022492	0.038246
-0.002601	0.941679	0.008924	0.024860	0.685991	0.124668	0.026236	0.011735	0.022858	0.038286
-0.002346	0.947008	0.008867	0.024755	0.696558	0.123931	0.026063	0.011612	0.023230	0.038344
-0.002077	0.952569	0.008815	0.024654	0.707633	0.123199	0.025906	0.011489	0.023608	0.038421
-0.001793	0.958327	0.008768	0.024557	0.719149	0.122473	0.025764	0.011366	0.023990	0.038516
-0.001494	0.964243	0.008726	0.024463	0.731030	0.121753	0.025638	0.011245	0.024375	0.038630
-0.001176	0.970287	0.008690	0.024370	0.743194	0.121039	0.025527	0.011124	0.024760	0.038762
-0.000839	0.976436	0.008659	0.024279	0.755551	0.120329	0.025431	0.011006	0.025144	0.038911
-0.000480	0.982678	0.008633	0.024187	0.768010	0.119622	0.025349	0.010890	0.025525	0.039078
-0.000096	0.989003	0.008612	0.024092	0.780473	0.118914	0.025281	0.010777	0.025900	0.039261
0.000313	0.995398	0.008596	0.023995	0.792841	0.118204	0.025225	0.010668	0.026267	0.039459
0.000750	1.001839	0.008586	0.023893	0.805012	0.117484	0.025180	0.010563	0.026623	0.039672
0.001218	1.008298	0.008581	0.023785	0.816885	0.116751	0.025145	0.010464	0.026965	0.039897
0.001718	1.014739	0.008583	0.023671	0.828362	0.115999	0.025117	0.010371	0.027290	0.040133
0.002253	1.021125	0.008590	0.023548	0.839337	0.115223	0.025096	0.010284	0.027596	0.040379
0.002826	1.027418	0.008605	0.023418	0.849698	0.114422	0.025078	0.010205	0.027880	0.040631
0.003439	1.033567	0.008628	0.023279	0.859327	0.113594	0.025062	0.010134	0.028140	0.040889
0.004094	1.039515	0.008657	0.023132	0.868106	0.112740	0.025045	0.010070	0.028374	0.041150
0.004794	1.045189	0.008694	0.022976	0.875933	0.111860	0.025027	0.010015	0.028581	0.041411
0.005542	1.050507	0.008739	0.022813	0.882723	0.110958	0.025005	0.009968	0.028759	0.041669
0.006339	1.055380	0.008791	0.022642	0.888407	0.110034	0.024979	0.009929	0.028907	0.041922
