/forceset/addlong_r/activation	/forceset/recfem_r/activation	/forceset/vaslat_r/activation	/forceset/vasmed_r/activation	/forceset/tibant_r/activation	/forceset/bflh_r/activation	/forceset/semiten_r/activation	/forceset/gaslat_r/activation	/forceset/gasmed_r/activation	/forceset/soleus_r/activation
0.144182	0.017541	0.000972	0.002377	0.001388	0.017074	-0.026944	0.082542	-0.051690	-0.005986
0.149147	0.018625	0.001164	0.002947	0.001888	0.018475	-0.021580	0.085443	-0.033340	-0.002650
0.154159	0.019710	0.001357	0.003515	0.002380	0.019867	-0.016300	0.088329	-0.015384	0.000615
0.159205	0.020792	0.001549	0.004076	0.002862	0.021245	-0.011123	0.091184	0.002102	0.003792
0.164269	0.021868	0.001741	0.004631	0.003333	0.022604	-0.006064	0.093993	0.019045	0.006869
0.169337	0.022936	0.001931	0.005178	0.003790	0.023940	-0.001140	0.096743	0.035380	0.009833
0.174388	0.023991	0.002120	0.005715	0.004232	0.025249	0.003634	0.099418	0.051049	0.012672
0.179405	0.025031	0.002306	0.006240	0.004657	0.026524	0.008245	0.102006	0.066001	0.015377
0.184366	0.026053	0.002489	0.006752	0.005064	0.027762	0.012682	0.104491	0.080191	0.017938
0.189250	0.027052	0.002669	0.007250	0.005452	0.028959	0.016937	0.106860	0.093582	0.020349
0.194036	0.028027	0.002845	0.007733	0.005820	0.030112	0.021004	0.109100	0.106143	0.022606
0.198702	0.028974	0.003017	0.008201	0.006167	0.031218	0.024880	0.111203	0.117853	0.024706
0.203230	0.029889	0.003184	0.008653	0.006493	0.032276	0.028564	0.113160	0.128698	0.026648
0.207600	0.030772	0.003347	0.009088	0.006797	0.033285	0.032052	0.114969	0.138665	0.028435
0.211796	0.031621	0.003506	0.009508	0.007080	0.034243	0.035345	0.116627	0.147752	0.030068
0.215799	0.032435	0.003660	0.009910	0.007341	0.035149	0.038441	0.118135	0.155962	0.031552
0.219591	0.033215	0.003809	0.010296	0.007580	0.036003	0.041337	0.119496	0.163306	0.032890
0.223153	0.033961	0.003953	0.010664	0.007797	0.036803	0.044035	0.120711	0.169798	0.034088
0.226463	0.034671	0.004092	0.011014	0.007993	0.037551	0.046534	0.121784	0.175453	0.035149
0.229499	0.035346	0.004226	0.011345	0.008167	0.038248	0.048838	0.122716	0.180292	0.036076
0.232241	0.035983	0.004354	0.011657	0.008319	0.038897	0.050954	0.123511	0.184342	0.036873
0.234673	0.036582	0.004477	0.011949	0.008450	0.039502	0.052888	0.124172	0.187637	0.037542
0.236781	0.037141	0.004595	0.012220	0.008559	0.040065	0.054652	0.124704	0.190220	0.038089
0.238561	0.037658	0.004706	0.012469	0.008647	0.040592	0.056253	0.125110	0.192134	0.038515
0.240013	0.038132	0.004812	0.012696	0.008715	0.041087	0.057701	0.125393	0.193421	0.038827
0.241142	0.038562	0.004913	0.012900	0.008763	0.041554	0.059004	0.125556	0.194123	0.039028
0.241958	0.038949	0.005007	0.013080	0.008792	0.041999	0.060173	0.125603	0.194276	0.039124
0.242469	0.039293	0.005096	0.013236	0.008804	0.042425	0.061215	0.125539	0.193915	0.039119
0.242686	0.039594	0.005178	0.013369	0.008798	0.042837	0.062141	0.125369	0.193074	0.039019
0.242617	0.039855	0.005255	0.013478	0.008775	0.043238	0.062959	0.125094	0.191786	0.038829
0.242270	0.040077	0.005325	0.013566	0.008737	0.043632	0.063680	0.124717	0.190081	0.038553
0.241653	0.040261	0.005390	0.013632	0.008682	0.044022	0.064310	0.124239	0.187989	0.038198
0.240778	0.040411	0.005448	0.013678	0.008611	0.044412	0.064858	0.123657	0.185539	0.037770
0.239657	0.040526	0.005500	0.013705	0.008525	0.044805	0.065330	0.122971	0.182759	0.037275
0.238307	0.040609	0.005546	0.013715	0.008424	0.045202	0.065733	0.122177	0.179682	0.036720
0.236742	0.040661	0.005586	0.013707	0.008308	0.045607	0.066072	0.121271	0.176336	0.036110
0.234982	0.040684	0.005618	0.013683	0.008176	0.046022	0.066353	0.120250	0.172755	0.035454
0.233046	0.040676	0.005645	0.013643	0.008030	0.046449	0.066582	0.119109	0.168969	0.034756
0.230955	0.040639	0.005665	0.013589	0.007870	0.046890	0.066763	0.117846	0.165007	0.034022
0.228733	0.040572	0.005678	0.013519	0.007695	0.047346	0.066900	0.116463	0.160897	0.033257
0.226404	0.040476	0.005686	0.013435	0.007507	0.047818	0.066998	0.114962	0.156662	0.032467
0.223991	0.040349	0.005687	0.013337	0.007305	0.048308	0.067058	0.113349	0.152325	0.031657
0.221516	0.040194	0.005683	0.013226	0.007089	0.048816	0.067083	0.111632	0.147905	0.030830
0.219001	0.040013	0.005672	0.013101	0.006862	0.049341	0.067075	0.109821	0.143420	0.029991
0.216462	0.039811	0.005657	0.012966	0.006623	0.049883	0.067035	0.107926	0.138885	0.029143
0.213916	0.039591	0.005636	0.012820	0.006373	0.050442	0.066965	0.105955	0.134317	0.028291
0.211377	0.039359	0.005610	0.012665	0.006115	0.051015	0.066866	0.103915	0.129728	0.027437
0.208859	0.039120	0.005580	0.012503	0.005848	0.051600	0.066740	0.101813	0.125131	0.026585
0.206379	0.038878	0.005545	0.012335	0.005574	0.052195	0.066591	0.099654	0.120540	0.025735
0.203951	0.038639	0.005506	0.012161	0.005295	0.052795	0.066420	0.097446	0.115965	0.024892
0.201590	0.038407	0.005463	0.011985	0.005011	0.053396	0.066230	0.095193	0.111417	0.024056
0.199312	0.038187	0.005417	0.011806	0.004724	0.053994	0.066025	0.092901	0.106906	0.023229
0.197133	0.037981	0.005367	0.011625	0.004435	0.054585	0.065807	0.090577	0.102441	0.022414
0.195071	0.037793	0.005314	0.011444	0.004145	0.055163	0.065578	0.088229	0.098031	0.021610
0.193139	0.037625	0.005258	0.011264	0.003855	0.055725	0.065343	0.085865	0.093683	0.020819
0.191353	0.037479	0.005200	0.011085	0.003566	0.056264	0.065101	0.083494	0.089405	0.020043
0.189725	0.037356	0.005139	0.010908	0.003279	0.056775	0.064857	0.081128	0.085206	0.019282
0.188267	0.037259	0.005077	0.010733	0.002995	0.057253	0.064610	0.078775	0.081093	0.018538
0.186987	0.037188	0.005015	0.010561	0.002715	0.057694	0.064361	0.076448	0.077073	0.017812
0.185890	0.037144	0.004951	0.010393	0.002441	0.058092	0.064110	0.074156	0.073153	0.017105
0.184979	0.037130	0.004887	0.010229	0.002173	0.058442	0.063857	0.071910	0.069339	0.016420
0.184254	0.037147	0.004823	0.010069	0.001912	0.058737	0.063602	0.069716	0.065635	0.015756
0.183713	0.037198	0.004760	0.009913	0.001660	0.058972	0.063343	0.067584	0.062047	0.015115
0.183351	0.037285	0.004698	0.009763	0.001417	0.059139	0.063080	0.065521	0.058578	0.014498
0.183162	0.037409	0.004637	0.009618	0.001186	0.059231	0.062814	0.063533	0.055232	0.013906
0.183141	0.037574	0.004577	0.009478	0.000968	0.059243	0.062543	0.061625	0.052010	0.013339
0.183283	0.037779	0.004519	0.009345	0.000763	0.059170	0.062266	0.059803	0.048915	0.012796
0.183581	0.038026	0.004463	0.009218	0.000574	0.059011	0.061983	0.058071	0.045946	0.012280
0.184035	0.038315	0.004409	0.009098	0.000402	0.058764	0.061693	0.056432	0.043106	0.011789
0.184642	0.038647	0.004357	0.008987	0.000249	0.058431	0.061393	0.054887	0.040393	0.011323
0.185403	0.039020	0.004306	0.008883	0.000117	0.058014	0.061081	0.053439	0.037807	0.010883
0.186321	0.039435	0.004258	0.008788	0.000009	0.057515	0.060755	0.052089	0.035348	0.010469
0.187395	0.039892	0.004212	0.008702	-0.000074	0.056937	0.060412	0.050836	0.033012	0.010080
0.188626	0.040390	0.004168	0.008626	-0.000129	0.056283	0.060047	0.049681	0.030799	0.009716
0.190011	0.040930	0.004126	0.008559	-0.000154	0.055554	0.059655	0.048624	0.028706	0.009377
0.191546	0.041513	0.004086	0.008502	-0.000147	0.054753	0.059232	0.047665	0.026729	0.009062
0.193229	0.042139	0.004049	0.008454	-0.000104	0.053884	0.058773	0.046802	0.024867	0.008771
0.195057	0.042809	0.004015	0.008416	-0.000024	0.052951	0.058275	0.046035	0.023115	0.008503
0.197028	0.043526	0.003983	0.008388	0.000096	0.051963	0.057735	0.045364	0.021470	0.008258
0.199142	0.044290	0.003954	0.008369	0.000258	0.050925	0.057151	0.044786	0.019928	0.008034
0.201398	0.045102	0.003928	0.008359	0.000467	0.049845	0.056525	0.044299	0.018487	0.007831
0.203800	0.045963	0.003906	0.008358	0.000724	0.048732	0.055855	0.043903	0.017142	0.007648
0.206351	0.046875	0.003887	0.008365	0.001033	0.047591	0.055144	0.043593	0.015889	0.007484
0.209056	0.047838	0.003871	0.008380	0.001397	0.046430	0.054392	0.043366	0.014726	0.007337
0.211923	0.048853	0.003858	0.008402	0.001820	0.045254	0.053601	0.043220	0.013648	0.007207
0.214959	0.049920	0.003849	0.008431	0.002305	0.044070	0.052775	0.043149	0.012653	0.007093
0.218171	0.051038	0.003843	0.008466	0.002856	0.042882	0.051918	0.043150	0.011737	0.006993
0.221562	0.052211	0.003841	0.008507	0.003476	0.041696	0.051034	0.043217	0.010898	0.006908
0.225133	0.053437	0.003842	0.008553	0.004170	0.040515	0.050128	0.043344	0.010131	0.006837
0.228886	0.054720	0.003846	0.008604	0.004940	0.039344	0.049207	0.043526	0.009435	0.006778
0.232819	0.056063	0.003853	0.008660	0.005792	0.038186	0.048273	0.043755	0.008805	0.006732
0.236932	0.057468	0.003864	0.008720	0.006728	0.037043	0.047333	0.044023	0.008238	0.006697
0.241224	0.058936	0.003877	0.008784	0.007753	0.035919	0.046389	0.044323	0.007733	0.006672
0.245699	0.060471	0.003894	0.008853	0.008870	0.034816	0.045444	0.044645	0.007285	0.006659
0.250357	0.062074	0.003914	0.008927	0.010084	0.033736	0.044504	0.044980	0.006892	0.006654
0.255199	0.063745	0.003936	0.009004	0.011397	0.032681	0.043569	0.045318	0.006552	0.006660
0.260223	0.065486	0.003961	0.009087	0.012814	0.031653	0.042646	0.045649	0.006260	0.006674
0.265424	0.067296	0.003989	0.009173	0.014338	0.030654	0.041735	0.045963	0.006016	0.006698
0.270794	0.069174	0.004019	0.009265	0.015973	0.029684	0.040842	0.046250	0.005814	0.006729
0.276323	0.071120	0.004051	0.009361	0.017722	0.028746	0.039969	0.046500	0.005653	0.006767
0.281998	0.073132	0.004085	0.009462	0.019588	0.027840	0.039119	0.046708	0.005529	0.006812
0.287808	0.075208	0.004121	0.009567	0.021576	0.026966	0.038295	0.046866	0.005439	0.006863
0.293736	0.077344	0.004157	0.009677	0.023687	0.026125	0.037497	0.046969	0.005380	0.006919
0.299765	0.079537	0.004195	0.009791	0.025925	0.025316	0.036728	0.047014	0.005348	0.006979
0.305873	0.081782	0.004234	0.009908	0.028291	0.024540	0.035988	0.046995	0.005340	0.007043
0.312036	0.084071	0.004273	0.010028	0.030789	0.023796	0.035277	0.046906	0.005353	0.007109
0.318227	0.086400	0.004313	0.010151	0.033420	0.023083	0.034595	0.046746	0.005384	0.007176
0.324415	0.088761	0.004352	0.010277	0.036186	0.022402	0.033942	0.046511	0.005430	0.007245
0.330569	0.091147	0.004392	0.010404	0.039088	0.021752	0.033316	0.046200	0.005489	0.007314
0.336662	0.093551	0.004432	0.010533	0.042128	0.021133	0.032718	0.045815	0.005558	0.007382
0.342666	0.095965	0.004471	0.010664	0.045307	0.020544	0.032145	0.045359	0.005635	0.007450
0.348558	0.098382	0.004510	0.010795	0.048624	0.019985	0.031598	0.044837	0.005719	0.007516
0.354317	0.100796	0.004548	0.010928	0.052080	0.019455	0.031075	0.044252	0.005808	0.007580
0.359923	0.103198	0.004586	0.011062	0.055674	0.018953	0.030575	0.043609	0.005902	0.007642
0.365359	0.105583	0.004622	0.011197	0.059403	0.018478	0.030099	0.042911	0.005999	0.007701
0.370612	0.107945	0.004658	0.011333	0.063265	0.018028	0.029644	0.042164	0.006098	0.007757
0.375663	0.110278	0.004692	0.011470	0.067258	0.017601	0.029211	0.041370	0.006197	0.007809
0.380497	0.112576	0.004725	0.011609	0.071378	0.017197	0.028797	0.040535	0.006297	0.007857
0.385092	0.114833	0.004756	0.011749	0.075619	0.016813	0.028402	0.039663	0.006395	0.007900
0.389423	0.117043	0.004787	0.011889	0.079976	0.016446	0.028024	0.038757	0.006490	0.007940
0.393466	0.119200	0.004816	0.012031	0.084444	0.016096	0.027662	0.037822	0.006583	0.007974
0.397197	0.121297	0.004844	0.012172	0.089015	0.015761	0.027315	0.036863	0.006672	0.008004
0.400598	0.123323	0.004871	0.012315	0.093683	0.015439	0.026982	0.035883	0.006757	0.008029
0.403654	0.125270	0.004897	0.012457	0.098438	0.015131	0.026661	0.034886	0.006835	0.008050
0.406358	0.127126	0.004921	0.012599	0.103271	0.014834	0.026349	0.033876	0.006907	0.008068
0.408708	0.128882	0.004944	0.012742	0.108174	0.014550	0.026046	0.032857	0.006972	0.008081
0.410711	0.130527	0.004965	0.012883	0.113136	0.014277	0.025749	0.031831	0.007030	0.008092
0.412376	0.132056	0.004985	0.013023	0.118147	0.014016	0.025457	0.030804	0.007080	0.008100
0.413717	0.133462	0.005004	0.013161	0.123194	0.013765	0.025167	0.029777	0.007121	0.008106
0.414752	0.134744	0.005021	0.013296	0.128265	0.013525	0.024879	0.028755	0.007154	0.008110
0.415495	0.135900	0.005037	0.013429	0.133345	0.013294	0.024591	0.027740	0.007179	0.008112
0.415962	0.136933	0.005052	0.013557	0.138421	0.013072	0.024303	0.026735	0.007195	0.008113
0.416160	0.137844	0.005066	0.013682	0.143478	0.012859	0.024014	0.025743	0.007204	0.008113
0.416096	0.138637	0.005081	0.013802	0.148502	0.012653	0.023725	0.024765	0.007205	0.008111
0.415768	0.139315	0.005095	0.013917	0.153478	0.012454	0.023436	0.023804	0.007200	0.008109
0.415175	0.139880	0.005108	0.014026	0.158390	0.012261	0.023146	0.022861	0.007188	0.008107
0.414312	0.140333	0.005122	0.014130	0.163220	0.012074	0.022856	0.021936	0.007172	0.008104
0.413177	0.140674	0.005135	0.014229	0.167951	0.011891	0.022567	0.021032	0.007150	0.008101
0.411769	0.140900	0.005148	0.014322	0.172567	0.011713	0.022277	0.020148	0.007125	0.008099
0.410090	0.141007	0.005160	0.014409	0.177049	0.011539	0.021988	0.019285	0.007095	0.008096
0.408151	0.140990	0.005171	0.014491	0.181379	0.011370	0.021698	0.018445	0.007062	0.008095
0.405964	0.140843	0.005181	0.014567	0.185541	0.011206	0.021406	0.017628	0.007027	0.008094
0.403549	0.140561	0.005190	0.014636	0.189523	0.011047	0.021112	0.016836	0.006988	0.008094
0.400927	0.140143	0.005198	0.014700	0.193315	0.010893	0.020815	0.016069	0.006947	0.008096
0.398124	0.139587	0.005203	0.014756	0.196916	0.010746	0.020515	0.015328	0.006903	0.008099
0.395168	0.138898	0.005207	0.014806	0.200322	0.010604	0.020212	0.014615	0.006856	0.008104
0.392083	0.138078	0.005210	0.014849	0.203536	0.010470	0.019906	0.013930	0.006806	0.008111
0.388893	0.137136	0.005210	0.014885	0.206565	0.010343	0.019598	0.013274	0.006754	0.008121
0.385616	0.136080	0.005209	0.014914	0.209420	0.010225	0.019287	0.012647	0.006698	0.008134
0.382266	0.134919	0.005206	0.014936	0.212122	0.010114	0.018976	0.012050	0.006639	0.008150
0.378852	0.133664	0.005201	0.014952	0.214691	0.010012	0.018665	0.011482	0.006578	0.008170
0.375379	0.132321	0.005193	0.014961	0.217144	0.009918	0.018356	0.010945	0.006514	0.008194
0.371852	0.130899	0.005184	0.014965	0.219501	0.009833	0.018048	0.010438	0.006448	0.008224
0.368277	0.129403	0.005173	0.014964	0.221778	0.009757	0.017744	0.009961	0.006379	0.008260
0.364661	0.127837	0.005159	0.014958	0.223990	0.009690	0.017443	0.009514	0.006309	0.008302
0.361014	0.126206	0.005142	0.014947	0.226152	0.009631	0.017146	0.009096	0.006237	0.008350
0.357347	0.124511	0.005123	0.014931	0.228277	0.009581	0.016854	0.008709	0.006164	0.008404
0.353675	0.122756	0.005101	0.014911	0.230377	0.009538	0.016564	0.008350	0.006091	0.008466
0.350014	0.120943	0.005075	0.014887	0.232461	0.009504	0.016279	0.008020	0.006017	0.008534
0.346380	0.119076	0.005047	0.014858	0.234535	0.009478	0.015997	0.007719	0.005944	0.008609
0.342792	0.117161	0.005017	0.014826	0.236603	0.009459	0.015719	0.007445	0.005872	0.008692
0.339264	0.115204	0.004983	0.014789	0.238666	0.009446	0.015444	0.007199	0.005801	0.008782
0.335809	0.113213	0.004948	0.014748	0.240724	0.009441	0.015174	0.006981	0.005733	0.008880
0.332437	0.111195	0.004909	0.014704	0.242774	0.009441	0.014907	0.006788	0.005666	0.008985
0.329151	0.109159	0.004869	0.014657	0.244811	0.009448	0.014645	0.006621	0.005602	0.009099
0.325953	0.107117	0.004826	0.014607	0.246829	0.009459	0.014388	0.006479	0.005541	0.009221
0.322840	0.105076	0.004781	0.014553	0.248818	0.009476	0.014137	0.006361	0.005483	0.009352
0.319808	0.103048	0.004735	0.014498	0.250770	0.009496	0.013892	0.006266	0.005428	0.009491
0.316849	0.101042	0.004686	0.014440	0.252677	0.009519	0.013654	0.006194	0.005376	0.009638
0.313954	0.099066	0.004635	0.014381	0.254531	0.009545	0.013423	0.006143	0.005328	0.009793
0.311113	0.097129	0.004583	0.014320	0.256325	0.009572	0.013200	0.006114	0.005282	0.009957
0.308315	0.095237	0.004529	0.014259	0.258051	0.009599	0.012986	0.006106	0.005239	0.010127
0.305550	0.093396	0.004474	0.014198	0.259703	0.009628	0.012779	0.006117	0.005199	0.010305
0.302806	0.091610	0.004418	0.014136	0.261279	0.009657	0.012582	0.006148	0.005162	0.010489
0.300075	0.089883	0.004361	0.014073	0.262773	0.009686	0.012394	0.006198	0.005127	0.010680
0.297350	0.088219	0.004304	0.014011	0.264181	0.009715	0.012215	0.006267	0.005094	0.010878
0.294622	0.086621	0.004247	0.013948	0.265494	0.009744	0.012045	0.006352	0.005064	0.011082
0.291883	0.085095	0.004190	0.013884	0.266705	0.009774	0.011884	0.006454	0.005035	0.011292
0.289121	0.083647	0.004134	0.013821	0.267802	0.009805	0.011733	0.006573	0.005007	0.011507
0.286324	0.082282	0.004078	0.013758	0.268777	0.009835	0.011592	0.006707	0.004981	0.011728
0.283476	0.081009	0.004023	0.013695	0.269620	0.009866	0.011460	0.006855	0.004956	0.011953
0.280564	0.079835	0.003970	0.013633	0.270328	0.009896	0.011338	0.007018	0.004931	0.012182
0.277575	0.078768	0.003919	0.013571	0.270898	0.009926	0.011226	0.007194	0.004907	0.012414
0.274499	0.077816	0.003869	0.013509	0.271330	0.009956	0.011124	0.007382	0.004884	0.012649
0.271329	0.076986	0.003821	0.013449	0.271624	0.009985	0.011033	0.007582	0.004861	0.012884
0.268062	0.076285	0.003776	0.013391	0.271787	0.010012	0.010950	0.007793	0.004839	0.013119
0.264696	0.075719	0.003734	0.013335	0.271826	0.010039	0.010878	0.008013	0.004818	0.013354
0.261232	0.075296	0.003694	0.013281	0.271756	0.010063	0.010815	0.008243	0.004797	0.013586
0.257671	0.075021	0.003657	0.013229	0.271586	0.010086	0.010761	0.008480	0.004778	0.013817
0.254013	0.074901	0.003623	0.013179	0.271331	0.010107	0.010716	0.008724	0.004759	0.014044
0.250255	0.074942	0.003591	0.013132	0.270999	0.010126	0.010679	0.008974	0.004741	0.014268
0.246394	0.075149	0.003563	0.013087	0.270600	0.010144	0.010650	0.009227	0.004723	0.014487
0.242422	0.075528	0.003538	0.013045	0.270142	0.010159	0.010630	0.009483	0.004706	0.014702
0.238337	0.076083	0.003515	0.013005	0.269630	0.010173	0.010616	0.009741	0.004690	0.014912
0.234135	0.076819	0.003496	0.012968	0.269068	0.010185	0.010609	0.009998	0.004675	0.015116
0.229813	0.077737	0.003479	0.012934	0.268461	0.010194	0.010608	0.010254	0.004660	0.015316
0.225375	0.078839	0.003466	0.012903	0.267817	0.010200	0.010613	0.010506	0.004645	0.015510
0.220823	0.080125	0.003455	0.012876	0.267142	0.010203	0.010623	0.010754	0.004631	0.015699
0.216161	0.081593	0.003446	0.012852	0.266445	0.010202	0.010636	0.010997	0.004618	0.015882
0.211396	0.083244	0.003440	0.012831	0.265737	0.010198	0.010652	0.011232	0.004605	0.016059
0.206537	0.085074	0.003437	0.012813	0.265028	0.010190	0.010671	0.011459	0.004592	0.016229
0.201590	0.087083	0.003436	0.012799	0.264328	0.010178	0.010691	0.011676	0.004579	0.016393
0.196566	0.089270	0.003437	0.012787	0.263647	0.010160	0.010712	0.011881	0.004566	0.016551
0.191472	0.091634	0.003441	0.012779	0.262993	0.010138	0.010734	0.012074	0.004554	0.016702
0.186312	0.094176	0.003447	0.012774	0.262377	0.010110	0.010756	0.012253	0.004541	0.016846
0.181092	0.096898	0.003455	0.012773	0.261814	0.010076	0.010777	0.012417	0.004529	0.016986
0.175815	0.099800	0.003466	0.012777	0.261323	0.010037	0.010797	0.012563	0.004515	0.017120
0.170481	0.102883	0.003480	0.012786	0.260922	0.009993	0.010817	0.012691	0.004502	0.017251
0.165096	0.106146	0.003495	0.012799	0.260627	0.009943	0.010835	0.012800	0.004487	0.017378
0.159665	0.109588	0.003513	0.012817	0.260453	0.009889	0.010851	0.012889	0.004472	0.017503
0.154196	0.113210	0.003533	0.012841	0.260415	0.009830	0.010866	0.012957	0.004456	0.017624
0.148702	0.117010	0.003556	0.012869	0.260524	0.009766	0.010879	0.013005	0.004439	0.017743
0.143197	0.120988	0.003580	0.012902	0.260791	0.009699	0.010890	0.013032	0.004422	0.017861
0.137698	0.125144	0.003607	0.012939	0.261221	0.009627	0.010899	0.013038	0.004404	0.017976
0.132220	0.129477	0.003635	0.012981	0.261821	0.009552	0.010906	0.013024	0.004386	0.018092
0.126781	0.133984	0.003666	0.013027	0.262592	0.009475	0.010911	0.012992	0.004368	0.018206
0.121394	0.138662	0.003698	0.013077	0.263535	0.009395	0.010914	0.012943	0.004350	0.018321
0.116071	0.143506	0.003732	0.013130	0.264649	0.009312	0.010916	0.012878	0.004334	0.018437
0.110825	0.148510	0.003767	0.013187	0.265926	0.009227	0.010916	0.012798	0.004318	0.018553
0.105665	0.153667	0.003804	0.013248	0.267363	0.009141	0.010915	0.012705	0.004305	0.018670
0.100601	0.158967	0.003842	0.013313	0.268950	0.009052	0.010913	0.012601	0.004295	0.018789
0.095641	0.164400	0.003881	0.013383	0.270685	0.008960	0.010911	0.012486	0.004287	0.018912
0.090791	0.169951	0.003921	0.013456	0.272563	0.008867	0.010908	0.012363	0.004283	0.019037
0.086057	0.175608	0.003962	0.013534	0.274579	0.008771	0.010905	0.012232	0.004282	0.019167
0.081444	0.181353	0.004004	0.013616	0.276728	0.008672	0.010902	0.012095	0.004284	0.019303
0.076957	0.187167	0.004048	0.013702	0.279004	0.008571	0.010899	0.011953	0.004291	0.019444
0.072599	0.193030	0.004092	0.013792	0.281402	0.008468	0.010897	0.011807	0.004302	0.019592
0.068373	0.198920	0.004138	0.013885	0.283925	0.008362	0.010895	0.011659	0.004317	0.019748
0.064281	0.204816	0.004185	0.013981	0.286578	0.008254	0.010893	0.011509	0.004337	0.019914
0.060327	0.210697	0.004232	0.014079	0.289368	0.008146	0.010891	0.011357	0.004362	0.020090
0.056511	0.216546	0.004281	0.014178	0.292301	0.008036	0.010888	0.011206	0.004391	0.020277
0.052835	0.222345	0.004331	0.014278	0.295382	0.007927	0.010884	0.011054	0.004426	0.020475
0.049300	0.228074	0.004381	0.014378	0.298613	0.007818	0.010879	0.010903	0.004466	0.020685
0.045906	0.233712	0.004433	0.014478	0.301994	0.007710	0.010874	0.010754	0.004511	0.020906
0.042653	0.239238	0.004487	0.014578	0.305522	0.007605	0.010868	0.010607	0.004561	0.021140
0.039541	0.244633	0.004542	0.014679	0.309191	0.007501	0.010862	0.010463	0.004617	0.021385
0.036569	0.249878	0.004599	0.014780	0.312998	0.007400	0.010856	0.010323	0.004679	0.021641
0.033735	0.254955	0.004658	0.014883	0.316933	0.007303	0.010850	0.010187	0.004746	0.021908
0.031039	0.259841	0.004720	0.014988	0.320987	0.007209	0.010844	0.010055	0.004819	0.022185
0.028478	0.264519	0.004783	0.015095	0.325149	0.007119	0.010838	0.009928	0.004897	0.022473
0.026052	0.268969	0.004848	0.015204	0.329406	0.007034	0.010831	0.009806	0.004981	0.022771
0.023757	0.273179	0.004915	0.015315	0.333746	0.006953	0.010824	0.009690	0.005071	0.023079
0.021591	0.277140	0.004984	0.015427	0.338159	0.006877	0.010816	0.009578	0.005166	0.023396
0.019551	0.280850	0.005055	0.015541	0.342634	0.006807	0.010806	0.009472	0.005267	0.023722
0.017635	0.284309	0.005128	0.015655	0.347156	0.006742	0.010795	0.009370	0.005373	0.024056
0.015838	0.287522	0.005201	0.015770	0.351711	0.006684	0.010781	0.009273	0.005485	0.024397
0.014157	0.290492	0.005276	0.015884	0.356279	0.006632	0.010765	0.009181	0.005602	0.024746
0.012589	0.293224	0.005352	0.015997	0.360841	0.006586	0.010745	0.009092	0.005725	0.025101
0.011129	0.295723	0.005428	0.016107	0.365372	0.006548	0.010722	0.009007	0.005853	0.025462
0.009772	0.297993	0.005505	0.016214	0.369844	0.006515	0.010695	0.008926	0.005987	0.025828
0.008516	0.300039	0.005583	0.016317	0.374229	0.006490	0.010665	0.008847	0.006125	0.026199
0.007355	0.301864	0.005661	0.016416	0.378503	0.006471	0.010632	0.008769	0.006267	0.026575
0.006285	0.303470	0.005739	0.016508	0.382637	0.006458	0.010597	0.008694	0.006414	0.026954
0.005302	0.304858	0.005817	0.016593	0.386608	0.006452	0.010559	0.008619	0.006565	0.027336
0.004403	0.306025	0.005896	0.016671	0.390390	0.006452	0.010519	0.008543	0.006719	0.027720
0.003583	0.306969	0.005974	0.016738	0.393964	0.006457	0.010476	0.008467	0.006875	0.028105
0.002838	0.307689	0.006052	0.016796	0.397323	0.006468	0.010432	0.008389	0.007034	0.028489
0.002166	0.308194	0.006130	0.016842	0.400465	0.006485	0.010385	0.008310	0.007194	0.028870
0.001561	0.308497	0.006206	0.016877	0.403396	0.006506	0.010335	0.008227	0.007356	0.029247
0.001020	0.308624	0.006280	0.016899	0.406122	0.006532	0.010284	0.008142	0.007517	0.029616
0.000540	0.308602	0.006352	0.016909	0.408647	0.006563	0.010229	0.008053	0.007678	0.029974
0.000117	0.308460	0.006422	0.016906	0.410973	0.006597	0.010172	0.007959	0.007838	0.030320
-0.000253	0.308228	0.006489	0.016891	0.413104	0.006636	0.010111	0.007861	0.007996	0.030652
-0.000572	0.307932	0.006553	0.016864	0.415046	0.006678	0.010047	0.007756	0.008152	0.030967
-0.000844	0.307594	0.006614	0.016823	0.416811	0.006723	0.009978	0.007645	0.008306	0.031265
-0.001072	0.307232	0.006671	0.016768	0.418414	0.006771	0.009905	0.007528	0.008456	0.031544
-0.001258	0.306863	0.006725	0.016699	0.419869	0.006823	0.009827	0.007404	0.008604	0.031805
-0.001406	0.306500	0.006776	0.016614	0.421190	0.006878	0.009744	0.007274	0.008748	0.032048
-0.001519	0.306156	0.006823	0.016514	0.422391	0.006935	0.009656	0.007137	0.008888	0.032271
-0.001599	0.305844	0.006868	0.016397	0.423484	0.006995	0.009564	0.006994	0.009025	0.032474
-0.001649	0.305574	0.006909	0.016264	0.424484	0.007057	0.009467	0.006845	0.009158	0.032657
-0.001671	0.305352	0.006947	0.016116	0.425399	0.007121	0.009367	0.006692	0.009286	0.032818
-0.001668	0.305182	0.006983	0.015953	0.426235	0.007187	0.009263	0.006533	0.009409	0.032957
-0.001642	0.305063	0.007015	0.015776	0.426991	0.007254	0.009157	0.006370	0.009527	0.033072
-0.001596	0.304989	0.007045	0.015586	0.427665	0.007324	0.009049	0.006204	0.009639	0.033163
-0.001531	0.304954	0.007071	0.015386	0.428248	0.007394	0.008939	0.006034	0.009744	0.033229
-0.001450	0.304946	0.007095	0.015176	0.428727	0.007465	0.008829	0.005861	0.009842	0.033270
-0.001355	0.304950	0.007116	0.014957	0.429084	0.007537	0.008718	0.005686	0.009934	0.033287
-0.001247	0.304947	0.007134	0.014732	0.429300	0.007609	0.008607	0.005509	0.010018	0.033279
-0.001128	0.304919	0.007149	0.014500	0.429348	0.007681	0.008496	0.005332	0.010096	0.033248
-0.001000	0.304845	0.007161	0.014264	0.429204	0.007753	0.008386	0.005155	0.010167	0.033195
-0.000863	0.304708	0.007170	0.014023	0.428840	0.007825	0.008277	0.004978	0.010232	0.033121
-0.000719	0.304500	0.007177	0.013778	0.428235	0.007897	0.008169	0.004804	0.010291	0.033028
-0.000569	0.304221	0.007182	0.013531	0.427376	0.007969	0.008062	0.004632	0.010345	0.032915
-0.000415	0.303878	0.007185	0.013281	0.426258	0.008040	0.007957	0.004465	0.010393	0.032785
-0.000258	0.303485	0.007185	0.013029	0.424876	0.008111	0.007854	0.004302	0.010436	0.032637
-0.000098	0.303057	0.007184	0.012775	0.423229	0.008182	0.007753	0.004144	0.010473	0.032471
0.000064	0.302611	0.007182	0.012522	0.421311	0.008253	0.007654	0.003993	0.010504	0.032289
0.000226	0.302163	0.007178	0.012269	0.419119	0.008323	0.007557	0.003848	0.010529	0.032089
0.000388	0.301725	0.007173	0.012019	0.416644	0.008393	0.007463	0.003711	0.010548	0.031872
0.000550	0.301312	0.007166	0.011771	0.413877	0.008463	0.007372	0.003583	0.010561	0.031640
0.000710	0.300939	0.007159	0.011527	0.410807	0.008531	0.007285	0.003465	0.010568	0.031394
0.000869	0.300620	0.007150	0.011288	0.407426	0.008599	0.007203	0.003357	0.010568	0.031134
0.001025	0.300372	0.007140	0.011054	0.403734	0.008665	0.007126	0.003261	0.010563	0.030862
0.001179	0.300209	0.007128	0.010827	0.399737	0.008731	0.007053	0.003176	0.010552	0.030579
0.001330	0.300142	0.007115	0.010607	0.395447	0.008795	0.006987	0.003105	0.010535	0.030287
0.001479	0.300181	0.007100	0.010394	0.390873	0.008857	0.006926	0.003048	0.010512	0.029986
0.001623	0.300335	0.007083	0.010189	0.386034	0.008919	0.006872	0.003006	0.010483	0.029679
0.001764	0.300614	0.007063	0.009992	0.380956	0.008978	0.006824	0.002979	0.010448	0.029367
0.001902	0.301033	0.007041	0.009804	0.375677	0.009036	0.006782	0.002969	0.010407	0.029050
0.002035	0.301609	0.007016	0.009624	0.370238	0.009092	0.006747	0.002976	0.010359	0.028729
0.002164	0.302358	0.006988	0.009453	0.364681	0.009144	0.006718	0.003001	0.010303	0.028403
0.002289	0.303294	0.006956	0.009291	0.359050	0.009194	0.006695	0.003045	0.010241	0.028072
0.002410	0.304430	0.006920	0.009138	0.353388	0.009241	0.006679	0.003109	0.010172	0.027736
0.002527	0.305775	0.006881	0.008995	0.347733	0.009284	0.006669	0.003194	0.010094	0.027393
0.002640	0.307336	0.006838	0.008861	0.342124	0.009322	0.006666	0.003300	0.010009	0.027043
0.002749	0.309117	0.006792	0.008738	0.336592	0.009357	0.006670	0.003428	0.009917	0.026684
0.002855	0.311120	0.006742	0.008624	0.331170	0.009386	0.006679	0.003579	0.009818	0.026318
0.002958	0.313351	0.006690	0.008521	0.325882	0.009411	0.006695	0.003753	0.009713	0.025944
0.003057	0.315813	0.006635	0.008427	0.320755	0.009430	0.006716	0.003952	0.009602	0.025564
0.003153	0.318517	0.006577	0.008342	0.315810	0.009443	0.006742	0.004176	0.009487	0.025179
0.003246	0.321470	0.006517	0.008267	0.311065	0.009450	0.006774	0.004426	0.009369	0.024791
0.003337	0.324682	0.006455	0.008201	0.306537	0.009451	0.006810	0.004702	0.009247	0.024402
0.003425	0.328159	0.006390	0.008143	0.302241	0.009446	0.006851	0.005005	0.009124	0.024012
0.003512	0.331907	0.006323	0.008092	0.298190	0.009434	0.006896	0.005336	0.008999	0.023625
0.003598	0.335931	0.006253	0.008048	0.294393	0.009415	0.006945	0.005695	0.008873	0.023240
0.003682	0.340234	0.006181	0.008011	0.290858	0.009390	0.006996	0.006083	0.008747	0.022860
0.003767	0.344823	0.006107	0.007979	0.287588	0.009357	0.007051	0.006501	0.008622	0.022486
0.003850	0.349703	0.006030	0.007953	0.284587	0.009318	0.007108	0.006948	0.008499	0.022119
0.003934	0.354879	0.005951	0.007932	0.281855	0.009273	0.007166	0.007425	0.008378	0.021759
0.004019	0.360355	0.005870	0.007915	0.279390	0.009223	0.007226	0.007933	0.008259	0.021406
0.004105	0.366131	0.005788	0.007902	0.277185	0.009166	0.007286	0.008470	0.008144	0.021063
0.004193	0.372202	0.005705	0.007893	0.275230	0.009105	0.007346	0.009039	0.008031	0.020729
0.004283	0.378562	0.005623	0.007887	0.273511	0.009040	0.007407	0.009637	0.007922	0.020405
0.004375	0.385200	0.005540	0.007885	0.272009	0.008972	0.007467	0.010266	0.007818	0.020092
0.004472	0.392099	0.005457	0.007887	0.270705	0.008902	0.007526	0.010925	0.007718	0.019791
0.004571	0.399239	0.005376	0.007892	0.269578	0.008830	0.007586	0.011614	0.007623	0.019504
0.004676	0.406592	0.005296	0.007901	0.268608	0.008758	0.007646	0.012332	0.007534	0.019231
0.004785	0.414129	0.005217	0.007913	0.267780	0.008687	0.007705	0.013079	0.007450	0.018973
0.004899	0.421818	0.005140	0.007929	0.267078	0.008617	0.007764	0.013854	0.007373	0.018732
0.005019	0.429627	0.005066	0.007949	0.266492	0.008550	0.007823	0.014656	0.007302	0.018507
0.005146	0.437524	0.004994	0.007973	0.266012	0.008486	0.007881	0.015483	0.007237	0.018301
0.005280	0.445485	0.004925	0.008001	0.265635	0.008426	0.007939	0.016335	0.007179	0.018114
0.005421	0.453487	0.004859	0.008032	0.265369	0.008371	0.007996	0.017211	0.007127	0.017947
0.005571	0.461513	0.004796	0.008067	0.265230	0.008322	0.008051	0.018109	0.007083	0.017801
0.005729	0.469543	0.004736	0.008105	0.265233	0.008280	0.008105	0.019026	0.007045	0.017678
0.005896	0.477560	0.004679	0.008146	0.265395	0.008246	0.008157	0.019962	0.007015	0.017579
0.006072	0.485540	0.004625	0.008189	0.265732	0.008220	0.008207	0.020914	0.006991	0.017503
0.006259	0.493459	0.004574	0.008234	0.266257	0.008202	0.008254	0.021879	0.006975	0.017452
0.006455	0.501284	0.004526	0.008280	0.266986	0.008194	0.008297	0.022855	0.006965	0.017426
0.006662	0.508979	0.004480	0.008326	0.267929	0.008195	0.008336	0.023839	0.006962	0.017425
0.006879	0.516506	0.004437	0.008372	0.269100	0.008206	0.008371	0.024828	0.006966	0.017449
0.007108	0.523823	0.004397	0.008416	0.270504	0.008229	0.008401	0.025818	0.006975	0.017498
0.007348	0.530891	0.004359	0.008459	0.272149	0.008262	0.008425	0.026806	0.006991	0.017571
0.007601	0.537670	0.004323	0.008500	0.274033	0.008306	0.008443	0.027787	0.007011	0.017668
0.007865	0.544127	0.004290	0.008537	0.276157	0.008363	0.008454	0.028757	0.007036	0.017789
0.008143	0.550229	0.004259	0.008571	0.278517	0.008431	0.008458	0.029713	0.007066	0.017931
0.008434	0.555952	0.004229	0.008601	0.281111	0.008512	0.008456	0.030648	0.007100	0.018095
0.008737	0.561274	0.004202	0.008627	0.283936	0.008606	0.008446	0.031557	0.007137	0.018280
0.009054	0.566177	0.004178	0.008649	0.286987	0.008711	0.008431	0.032436	0.007177	0.018483
0.009384	0.570644	0.004155	0.008667	0.290257	0.008830	0.008409	0.033277	0.007218	0.018704
0.009727	0.574656	0.004135	0.008681	0.293733	0.008960	0.008382	0.034075	0.007262	0.018941
0.010083	0.578188	0.004118	0.008692	0.297402	0.009103	0.008350	0.034824	0.007306	0.019192
0.010452	0.581212	0.004103	0.008699	0.301245	0.009258	0.008313	0.035516	0.007350	0.019457
0.010835	0.583700	0.004091	0.008703	0.305244	0.009426	0.008273	0.036147	0.007394	0.019734
0.011229	0.585631	0.004083	0.008704	0.309378	0.009606	0.008229	0.036710	0.007437	0.020021
0.011636	0.586988	0.004077	0.008702	0.313624	0.009798	0.008181	0.037202	0.007479	0.020318
0.012054	0.587767	0.004074	0.008698	0.317961	0.010002	0.008130	0.037620	0.007519	0.020622
0.012484	0.587973	0.004074	0.008692	0.322367	0.010219	0.008077	0.037961	0.007557	0.020933
0.012924	0.587623	0.004077	0.008685	0.326820	0.010449	0.008021	0.038222	0.007594	0.021248
0.013373	0.586740	0.004083	0.008677	0.331295	0.010691	0.007962	0.038402	0.007627	0.021564
0.013832	0.585357	0.004092	0.008669	0.335769	0.010946	0.007900	0.038498	0.007657	0.021880
0.014298	0.583504	0.004104	0.008660	0.340216	0.011214	0.007836	0.038510	0.007685	0.022192
0.014772	0.581210	0.004119	0.008652	0.344614	0.011496	0.007771	0.038439	0.007708	0.022499
0.015250	0.578496	0.004136	0.008644	0.348936	0.011791	0.007705	0.038287	0.007729	0.022798
0.015733	0.575382	0.004155	0.008638	0.353156	0.012099	0.007639	0.038058	0.007744	0.023086
0.016218	0.571889	0.004176	0.008632	0.357249	0.012421	0.007573	0.037755	0.007756	0.023361
0.016705	0.568038	0.004199	0.008629	0.361193	0.012757	0.007509	0.037381	0.007763	0.023620
0.017191	0.563857	0.004224	0.008628	0.364969	0.013106	0.007446	0.036942	0.007765	0.023864
0.017676	0.559375	0.004250	0.008629	0.368559	0.013470	0.007385	0.036442	0.007764	0.024090
0.018157	0.554623	0.004276	0.008634	0.371947	0.013849	0.007327	0.035887	0.007758	0.024300
0.018634	0.549633	0.004304	0.008642	0.375123	0.014241	0.007272	0.035280	0.007749	0.024492
0.019105	0.544431	0.004332	0.008654	0.378088	0.014648	0.007219	0.034628	0.007739	0.024668
0.019568	0.539046	0.004361	0.008669	0.380854	0.015070	0.007170	0.033936	0.007728	0.024828
0.020022	0.533501	0.004390	0.008688	0.383442	0.015507	0.007125	0.033210	0.007716	0.024972
0.020465	0.527817	0.004419	0.008711	0.385876	0.015960	0.007084	0.032454	0.007705	0.025102
0.020895	0.522013	0.004449	0.008738	0.388181	0.016430	0.007047	0.031675	0.007696	0.025217
0.021314	0.516102	0.004479	0.008769	0.390388	0.016916	0.007014	0.030877	0.007690	0.025318
0.021721	0.510094	0.004509	0.008804	0.392533	0.017419	0.006986	0.030065	0.007686	0.025409
0.022118	0.503991	0.004539	0.008842	0.394646	0.017940	0.006963	0.029244	0.007686	0.025489
0.022506	0.497797	0.004569	0.008883	0.396758	0.018478	0.006945	0.028418	0.007691	0.025560
0.022886	0.491512	0.004599	0.008928	0.398892	0.019033	0.006932	0.027591	0.007700	0.025622
0.023260	0.485136	0.004628	0.008976	0.401070	0.019606	0.006923	0.026766	0.007715	0.025678
0.023628	0.478671	0.004657	0.009027	0.403312	0.020195	0.006921	0.025947	0.007735	0.025728
0.023993	0.472117	0.004685	0.009081	0.405635	0.020801	0.006923	0.025137	0.007762	0.025771
0.024356	0.465474	0.004711	0.009140	0.408052	0.021423	0.006931	0.024340	0.007796	0.025808
0.024717	0.458738	0.004736	0.009201	0.410570	0.022062	0.006944	0.023558	0.007836	0.025841
0.025078	0.451897	0.004760	0.009267	0.413191	0.022717	0.006964	0.022792	0.007884	0.025868
0.025439	0.444937	0.004782	0.009336	0.415916	0.023387	0.006990	0.022047	0.007939	0.025890
0.025802	0.437837	0.004803	0.009409	0.418742	0.024073	0.007023	0.021323	0.008002	0.025907
0.026166	0.430578	0.004822	0.009486	0.421666	0.024773	0.007062	0.020623	0.008073	0.025920
0.026532	0.423138	0.004840	0.009568	0.424686	0.025486	0.007109	0.019948	0.008151	0.025929
0.026899	0.415505	0.004856	0.009654	0.427794	0.026211	0.007163	0.019300	0.008237	0.025935
0.027270	0.407671	0.004871	0.009745	0.430979	0.026948	0.007225	0.018680	0.008332	0.025939
0.027643	0.399641	0.004884	0.009840	0.434229	0.027696	0.007295	0.018089	0.008435	0.025942
0.028020	0.391430	0.004895	0.009940	0.437527	0.028456	0.007372	0.017528	0.008546	0.025944
0.028400	0.383062	0.004903	0.010045	0.440853	0.029226	0.007458	0.016997	0.008667	0.025949
0.028784	0.374570	0.004910	0.010153	0.444187	0.030007	0.007551	0.016497	0.008796	0.025956
0.029171	0.365988	0.004914	0.010266	0.447502	0.030799	0.007651	0.016028	0.008934	0.025969
0.029560	0.357352	0.004915	0.010382	0.450777	0.031601	0.007759	0.015588	0.009080	0.025986
0.029950	0.348693	0.004914	0.010503	0.453988	0.032412	0.007874	0.015180	0.009236	0.026010
0.030340	0.340038	0.004911	0.010627	0.457117	0.033232	0.007996	0.014801	0.009400	0.026041
0.030729	0.331412	0.004905	0.010755	0.460143	0.034060	0.008124	0.014451	0.009571	0.026080
0.031114	0.322834	0.004896	0.010887	0.463047	0.034896	0.008258	0.014129	0.009750	0.026127
0.031495	0.314322	0.004886	0.011023	0.465809	0.035740	0.008398	0.013834	0.009935	0.026182
0.031869	0.305891	0.004875	0.011162	0.468413	0.036590	0.008543	0.013566	0.010127	0.026247
0.032235	0.297553	0.004862	0.011306	0.470851	0.037447	0.008693	0.013322	0.010324	0.026323
0.032593	0.289320	0.004849	0.011452	0.473125	0.038308	0.008848	0.013101	0.010525	0.026409
0.032941	0.281204	0.004835	0.011602	0.475242	0.039174	0.009006	0.012903	0.010730	0.026505
0.033279	0.273214	0.004821	0.011754	0.477209	0.040045	0.009168	0.012725	0.010937	0.026612
0.033606	0.265363	0.004807	0.011908	0.479031	0.040921	0.009332	0.012566	0.011146	0.026730
0.033921	0.257662	0.004794	0.012064	0.480707	0.041801	0.009497	0.012425	0.011354	0.026857
0.034225	0.250123	0.004782	0.012220	0.482232	0.042685	0.009664	0.012301	0.011562	0.026994
0.034517	0.242760	0.004771	0.012378	0.483597	0.043574	0.009831	0.012192	0.011768	0.027139
0.034798	0.235589	0.004760	0.012535	0.484795	0.044466	0.009997	0.012098	0.011971	0.027291
0.035065	0.228632	0.004751	0.012692	0.485824	0.045363	0.010162	0.012017	0.012169	0.027449
0.035319	0.221912	0.004744	0.012846	0.486682	0.046262	0.010325	0.011948	0.012360	0.027611
0.035557	0.215451	0.004737	0.012997	0.487372	0.047163	0.010486	0.011889	0.012544	0.027776
0.035778	0.209274	0.004732	0.013144	0.487894	0.048066	0.010643	0.011839	0.012719	0.027941
0.035980	0.203400	0.004728	0.013285	0.488244	0.048967	0.010796	0.011796	0.012882	0.028104
0.036159	0.197850	0.004726	0.013420	0.488415	0.049865	0.010945	0.011759	0.013034	0.028263
0.036315	0.192642	0.004725	0.013547	0.488403	0.050758	0.011090	0.011727	0.013172	0.028417
0.036446	0.187790	0.004726	0.013665	0.488201	0.051643	0.011231	0.011699	0.013297	0.028561
0.036551	0.183311	0.004727	0.013772	0.487803	0.052518	0.011368	0.011673	0.013409	0.028696
0.036632	0.179215	0.004730	0.013868	0.487205	0.053379	0.011500	0.011650	0.013506	0.028816
0.036689	0.175510	0.004734	0.013952	0.486412	0.054223	0.011628	0.011628	0.013588	0.028922
0.036724	0.172204	0.004739	0.014023	0.485432	0.055048	0.011751	0.011607	0.013656	0.029008
0.036741	0.169299	0.004744	0.014080	0.484278	0.055849	0.011868	0.011585	0.013708	0.029073
0.036744	0.166799	0.004749	0.014125	0.482967	0.056623	0.011978	0.011562	0.013744	0.029113
0.036735	0.164700	0.004755	0.014155	0.481523	0.057364	0.012080	0.011538	0.013765	0.029127
0.036721	0.163002	0.004759	0.014172	0.479976	0.058068	0.012174	0.011510	0.013769	0.029112
0.036703	0.161698	0.004764	0.014175	0.478354	0.058729	0.012260	0.011479	0.013757	0.029067
0.036686	0.160783	0.004767	0.014163	0.476685	0.059344	0.012335	0.011445	0.013729	0.028992
0.036672	0.160249	0.004769	0.014139	0.474988	0.059908	0.012401	0.011407	0.013685	0.028887
0.036666	0.160085	0.004770	0.014101	0.473275	0.060419	0.012457	0.011366	0.013628	0.028753
0.036670	0.160281	0.004770	0.014050	0.471554	0.060875	0.012501	0.011322	0.013557	0.028592
0.036687	0.160821	0.004769	0.013987	0.469824	0.061275	0.012536	0.011276	0.013474	0.028407
0.036722	0.161690	0.004768	0.013912	0.468082	0.061619	0.012559	0.011226	0.013380	0.028198
0.036777	0.162871	0.004765	0.013828	0.466321	0.061908	0.012571	0.011174	0.013275	0.027968
0.036857	0.164344	0.004761	0.013733	0.464528	0.062143	0.012573	0.011119	0.013161	0.027717
0.036967	0.166088	0.004756	0.013630	0.462689	0.062325	0.012565	0.011062	0.013038	0.027448
0.037113	0.168081	0.004750	0.013518	0.460792	0.062455	0.012545	0.011002	0.012907	0.027161
0.037299	0.170298	0.004743	0.013398	0.458824	0.062535	0.012515	0.010941	0.012769	0.026860
0.037533	0.172716	0.004734	0.013273	0.456776	0.062564	0.012474	0.010878	0.012626	0.026545
0.037819	0.175308	0.004723	0.013141	0.454641	0.062542	0.012421	0.010814	0.012480	0.026221
0.038165	0.178050	0.004711	0.013005	0.452409	0.062470	0.012358	0.010750	0.012330	0.025888
0.038575	0.180915	0.004696	0.012865	0.450072	0.062345	0.012283	0.010687	0.012179	0.025549
0.039056	0.183881	0.004680	0.012722	0.447623	0.062168	0.012198	0.010626	0.012027	0.025208
0.039611	0.186924	0.004662	0.012577	0.445059	0.061936	0.012102	0.010567	0.011876	0.024868
0.040246	0.190021	0.004643	0.012430	0.442380	0.061650	0.011997	0.010510	0.011726	0.024530
0.040962	0.193152	0.004622	0.012282	0.439586	0.061310	0.011884	0.010456	0.011578	0.024197
0.041766	0.196293	0.004600	0.012134	0.436684	0.060915	0.011764	0.010406	0.011433	0.023872
0.042658	0.199423	0.004577	0.011985	0.433687	0.060467	0.011638	0.010360	0.011291	0.023557
0.043643	0.202520	0.004553	0.011837	0.430612	0.059968	0.011509	0.010317	0.011153	0.023253
0.044722	0.205562	0.004529	0.011688	0.427477	0.059418	0.011376	0.010279	0.011021	0.022962
0.045897	0.208522	0.004504	0.011540	0.424302	0.058821	0.011241	0.010244	0.010893	0.022685
0.047170	0.211375	0.004478	0.011393	0.421113	0.058181	0.011107	0.010213	0.010771	0.022423
0.048541	0.214089	0.004451	0.011247	0.417940	0.057500	0.010973	0.010186	0.010656	0.022178
0.050014	0.216636	0.004423	0.011102	0.414812	0.056783	0.010841	0.010162	0.010547	0.021950
0.051588	0.218986	0.004395	0.010959	0.411753	0.056034	0.010711	0.010141	0.010445	0.021741
0.053266	0.221116	0.004365	0.010818	0.408785	0.055256	0.010584	0.010124	0.010350	0.021549
0.055046	0.223004	0.004335	0.010679	0.405924	0.054453	0.010462	0.010109	0.010264	0.021377
0.056930	0.224635	0.004304	0.010543	0.403181	0.053628	0.010344	0.010097	0.010186	0.021224
0.058918	0.225998	0.004272	0.010409	0.400562	0.052784	0.010232	0.010087	0.010117	0.021091
0.061009	0.227087	0.004240	0.010278	0.398070	0.051922	0.010127	0.010079	0.010057	0.020977
0.063201	0.227896	0.004208	0.010150	0.395700	0.051044	0.010029	0.010074	0.010005	0.020882
0.065494	0.228422	0.004176	0.010025	0.393443	0.050153	0.009940	0.010072	0.009963	0.020806
0.067884	0.228663	0.004144	0.009902	0.391284	0.049252	0.009860	0.010072	0.009930	0.020750
0.070369	0.228614	0.004113	0.009782	0.389205	0.048344	0.009790	0.010075	0.009905	0.020711
0.072942	0.228269	0.004082	0.009665	0.387183	0.047432	0.009732	0.010082	0.009889	0.020691
0.075600	0.227620	0.004052	0.009551	0.385195	0.046520	0.009686	0.010090	0.009880	0.020688
0.078335	0.226663	0.004023	0.009438	0.383224	0.045614	0.009652	0.010102	0.009879	0.020701
0.081141	0.225395	0.003995	0.009329	0.381256	0.044719	0.009631	0.010114	0.009885	0.020730
0.084011	0.223820	0.003967	0.009221	0.379283	0.043841	0.009623	0.010129	0.009897	0.020773
0.086937	0.221943	0.003941	0.009116	0.377298	0.042987	0.009630	0.010143	0.009915	0.020831
0.089909	0.219775	0.003915	0.009014	0.375293	0.042163	0.009651	0.010158	0.009938	0.020901
0.092918	0.217328	0.003890	0.008915	0.373267	0.041375	0.009687	0.010172	0.009966	0.020983
0.095953	0.214619	0.003866	0.008819	0.371216	0.040628	0.009737	0.010184	0.009996	0.021076
0.099004	0.211664	0.003843	0.008726	0.369140	0.039927	0.009803	0.010195	0.010030	0.021179
0.102056	0.208482	0.003820	0.008638	0.367035	0.039276	0.009885	0.010205	0.010067	0.021291
0.105098	0.205090	0.003798	0.008553	0.364895	0.038679	0.009982	0.010213	0.010106	0.021410
0.108118	0.201503	0.003777	0.008472	0.362711	0.038140	0.010094	0.010219	0.010147	0.021537
0.111103	0.197734	0.003756	0.008395	0.360478	0.037662	0.010223	0.010223	0.010190	0.021669
0.114041	0.193796	0.003736	0.008322	0.358192	0.037249	0.010369	0.010226	0.010234	0.021806
0.116918	0.189705	0.003716	0.008253	0.355856	0.036904	0.010531	0.010226	0.010279	0.021947
0.119724	0.185476	0.003697	0.008188	0.353469	0.036631	0.010711	0.010225	0.010324	0.022090
0.122445	0.181127	0.003679	0.008126	0.351030	0.036433	0.010908	0.010221	0.010370	0.022235
0.125068	0.176678	0.003661	0.008068	0.348538	0.036313	0.011123	0.010215	0.010416	0.022380
0.127581	0.172152	0.003643	0.008014	0.345989	0.036273	0.011357	0.010206	0.010460	0.022522
0.129969	0.167573	0.003626	0.007963	0.343383	0.036316	0.011608	0.010195	0.010503	0.022659
0.132218	0.162964	0.003608	0.007916	0.340725	0.036445	0.011877	0.010180	0.010544	0.022790
0.134310	0.158347	0.003591	0.007872	0.338021	0.036660	0.012165	0.010161	0.010582	0.022913
0.136231	0.153745	0.003574	0.007830	0.335282	0.036964	0.012470	0.010139	0.010617	0.023026
0.137967	0.149176	0.003557	0.007792	0.332516	0.037358	0.012793	0.010113	0.010647	0.023126
0.139506	0.144657	0.003540	0.007756	0.329733	0.037841	0.013133	0.010082	0.010673	0.023211
0.140841	0.140204	0.003523	0.007724	0.326948	0.038415	0.013490	0.010047	0.010694	0.023279
0.141966	0.135828	0.003506	0.007693	0.324177	0.039078	0.013863	0.010007	0.010709	0.023327
0.142878	0.131542	0.003489	0.007666	0.321446	0.039829	0.014252	0.009961	0.010717	0.023355
0.143576	0.127354	0.003472	0.007641	0.318778	0.040666	0.014655	0.009909	0.010719	0.023361
0.144060	0.123273	0.003455	0.007618	0.316196	0.041587	0.015073	0.009851	0.010713	0.023344
0.144328	0.119306	0.003437	0.007597	0.313721	0.042590	0.015506	0.009787	0.010700	0.023304
0.144378	0.115456	0.003420	0.007579	0.311368	0.043671	0.015952	0.009717	0.010679	0.023242
0.144209	0.111729	0.003402	0.007563	0.309153	0.044827	0.016412	0.009642	0.010652	0.023159
0.143821	0.108125	0.003385	0.007548	0.307089	0.046053	0.016886	0.009563	0.010618	0.023055
0.143216	0.104647	0.003367	0.007536	0.305184	0.047348	0.017374	0.009478	0.010577	0.022930
0.142401	0.101294	0.003349	0.007524	0.303446	0.048705	0.017875	0.009390	0.010530	0.022785
0.141382	0.098065	0.003331	0.007514	0.301879	0.050122	0.018392	0.009297	0.010477	0.022622
0.140171	0.094958	0.003313	0.007505	0.300488	0.051593	0.018923	0.009201	0.010418	0.022439
0.138779	0.091969	0.003294	0.007498	0.299272	0.053115	0.019470	0.009101	0.010352	0.022238
0.137221	0.089095	0.003274	0.007492	0.298231	0.054682	0.020032	0.008997	0.010281	0.022019
0.135511	0.086329	0.003254	0.007489	0.297358	0.056290	0.020612	0.008890	0.010203	0.021784
0.133661	0.083666	0.003234	0.007488	0.296644	0.057932	0.021208	0.008779	0.010121	0.021534
0.131686	0.081102	0.003213	0.007491	0.296077	0.059603	0.021821	0.008665	0.010033	0.021270
0.129597	0.078632	0.003193	0.007497	0.295644	0.061296	0.022452	0.008549	0.009941	0.020994
0.127410	0.076254	0.003171	0.007506	0.295327	0.063003	0.023100	0.008429	0.009846	0.020708
0.125135	0.073964	0.003150	0.007520	0.295112	0.064718	0.023766	0.008308	0.009747	0.020415
0.122786	0.071761	0.003129	0.007538	0.294984	0.066433	0.024449	0.008186	0.009646	0.020115
0.120374	0.069645	0.003107	0.007560	0.294928	0.068142	0.025150	0.008063	0.009542	0.019810
0.117913	0.067613	0.003086	0.007586	0.294936	0.069838	0.025869	0.007940	0.009437	0.019502
0.115411	0.065665	0.003065	0.007616	0.294996	0.071519	0.026605	0.007818	0.009329	0.019191
0.112881	0.063798	0.003044	0.007650	0.295098	0.073181	0.027358	0.007698	0.009221	0.018879
0.110332	0.062011	0.003024	0.007688	0.295227	0.074823	0.028126	0.007579	0.009110	0.018566
0.107774	0.060302	0.003005	0.007729	0.295366	0.076445	0.028908	0.007463	0.008998	0.018252
0.105216	0.058668	0.002986	0.007774	0.295496	0.078046	0.029705	0.007349	0.008884	0.017938
0.102665	0.057105	0.002968	0.007821	0.295599	0.079625	0.030515	0.007238	0.008769	0.017624
0.100129	0.055610	0.002951	0.007872	0.295659	0.081182	0.031336	0.007130	0.008651	0.017310
0.097613	0.054180	0.002936	0.007925	0.295660	0.082713	0.032169	0.007026	0.008533	0.016998
0.095122	0.052812	0.002921	0.007980	0.295587	0.084217	0.033010	0.006926	0.008413	0.016689
0.092660	0.051502	0.002908	0.008037	0.295423	0.085693	0.033858	0.006830	0.008294	0.016383
0.090227	0.050248	0.002896	0.008095	0.295153	0.087138	0.034711	0.006740	0.008175	0.016082
0.087825	0.049046	0.002885	0.008155	0.294762	0.088554	0.035568	0.006656	0.008056	0.015785
0.085454	0.047896	0.002875	0.008215	0.294238	0.089943	0.036426	0.006577	0.007939	0.015494
0.083112	0.046794	0.002867	0.008276	0.293564	0.091306	0.037284	0.006506	0.007825	0.015210
0.080798	0.045739	0.002859	0.008338	0.292723	0.092648	0.038139	0.006443	0.007712	0.014932
0.078508	0.044730	0.002853	0.008400	0.291696	0.093970	0.038988	0.006388	0.007603	0.014661
0.076241	0.043765	0.002847	0.008463	0.290460	0.095274	0.039828	0.006341	0.007497	0.014398
0.073993	0.042844	0.002843	0.008526	0.288989	0.096562	0.040655	0.006303	0.007395	0.014142
0.071764	0.041966	0.002840	0.008590	0.287258	0.097834	0.041467	0.006275	0.007299	0.013895
0.069553	0.041132	0.002837	0.008655	0.285241	0.099090	0.042258	0.006257	0.007207	0.013657
0.067359	0.040343	0.002835	0.008719	0.282910	0.100329	0.043025	0.006248	0.007122	0.013429
0.065185	0.039599	0.002833	0.008783	0.280234	0.101548	0.043766	0.006250	0.007042	0.013211
0.063032	0.038899	0.002832	0.008847	0.277183	0.102745	0.044475	0.006263	0.006970	0.013006
0.060903	0.038244	0.002831	0.008911	0.273728	0.103915	0.045153	0.006286	0.006904	0.012812
0.058799	0.037632	0.002831	0.008973	0.269851	0.105053	0.045798	0.006319	0.006844	0.012631
0.056724	0.037062	0.002831	0.009034	0.265550	0.106153	0.046411	0.006363	0.006792	0.012464
0.054683	0.036531	0.002830	0.009094	0.260834	0.107208	0.046994	0.006418	0.006747	0.012312
0.052679	0.036039	0.002830	0.009151	0.255726	0.108215	0.047548	0.006484	0.006708	0.012174
0.050716	0.035581	0.002830	0.009205	0.250251	0.109166	0.048074	0.006560	0.006676	0.012051
0.048800	0.035154	0.002830	0.009255	0.244446	0.110056	0.048574	0.006646	0.006651	0.011944
0.046933	0.034756	0.002830	0.009302	0.238354	0.110877	0.049048	0.006744	0.006632	0.011851
0.045119	0.034383	0.002829	0.009344	0.232021	0.111624	0.049498	0.006851	0.006619	0.011775
0.043361	0.034031	0.002829	0.009381	0.225494	0.112289	0.049924	0.006970	0.006612	0.011713
0.041662	0.033699	0.002830	0.009413	0.218817	0.112866	0.050326	0.007098	0.006609	0.011666
0.040023	0.033384	0.002830	0.009438	0.212029	0.113351	0.050706	0.007237	0.006612	0.011634
0.038447	0.033084	0.002831	0.009457	0.205171	0.113742	0.051065	0.007385	0.006619	0.011615
0.036937	0.032800	0.002833	0.009469	0.198277	0.114038	0.051408	0.007544	0.006630	0.011610
0.035492	0.032529	0.002836	0.009473	0.191380	0.114239	0.051739	0.007711	0.006643	0.011617
0.034115	0.032272	0.002840	0.009469	0.184510	0.114345	0.052061	0.007889	0.006659	0.011637
0.032806	0.032027	0.002844	0.009457	0.177696	0.114356	0.052381	0.008076	0.006676	0.011668
0.031566	0.031793	0.002851	0.009438	0.170962	0.114270	0.052702	0.008272	0.006695	0.011709
0.030393	0.031571	0.002858	0.009411	0.164332	0.114085	0.053030	0.008479	0.006714	0.011761
0.029289	0.031358	0.002867	0.009375	0.157824	0.113796	0.053369	0.008695	0.006734	0.011822
0.028251	0.031154	0.002877	0.009333	0.151458	0.113400	0.053723	0.008923	0.006752	0.011891
0.027280	0.030958	0.002888	0.009282	0.145248	0.112893	0.054097	0.009161	0.006770	0.011968
0.026374	0.030768	0.002900	0.009225	0.139210	0.112270	0.054497	0.009410	0.006785	0.012051
0.025532	0.030584	0.002914	0.009162	0.133354	0.111527	0.054928	0.009671	0.006798	0.012140
0.024754	0.030404	0.002928	0.009092	0.127693	0.110663	0.055395	0.009943	0.006809	0.012234
0.024039	0.030226	0.002944	0.009018	0.122233	0.109679	0.055902	0.010228	0.006818	0.012330
0.023387	0.030049	0.002960	0.008939	0.116983	0.108583	0.056453	0.010525	0.006823	0.012429
0.022799	0.029874	0.002976	0.008857	0.111949	0.107386	0.057052	0.010835	0.006825	0.012527
0.022274	0.029700	0.002994	0.008773	0.107134	0.106101	0.057700	0.011158	0.006824	0.012625
0.021814	0.029526	0.003012	0.008688	0.102543	0.104738	0.058400	0.011494	0.006820	0.012721
0.021419	0.029354	0.003031	0.008603	0.098175	0.103310	0.059153	0.011845	0.006811	0.012813
0.021089	0.029181	0.003051	0.008518	0.094031	0.101829	0.059961	0.012209	0.006798	0.012901
0.020822	0.029009	0.003071	0.008436	0.090110	0.100305	0.060823	0.012588	0.006779	0.012983
0.020620	0.028837	0.003092	0.008357	0.086408	0.098752	0.061741	0.012981	0.006755	0.013058
0.020481	0.028665	0.003113	0.008281	0.082922	0.097181	0.062713	0.013389	0.006725	0.013126
0.020403	0.028493	0.003134	0.008209	0.079648	0.095604	0.063740	0.013811	0.006688	0.013185
0.020387	0.028320	0.003155	0.008142	0.076580	0.094035	0.064819	0.014247	0.006644	0.013234
0.020429	0.028147	0.003176	0.008081	0.073713	0.092485	0.065949	0.014697	0.006593	0.013273
0.020529	0.027974	0.003197	0.008026	0.071044	0.090970	0.067128	0.015160	0.006535	0.013301
0.020685	0.027801	0.003217	0.007978	0.068568	0.089500	0.068356	0.015636	0.006471	0.013319
0.020893	0.027628	0.003238	0.007937	0.066282	0.088089	0.069629	0.016124	0.006401	0.013327
0.021152	0.027455	0.003258	0.007904	0.064181	0.086750	0.070948	0.016622	0.006325	0.013323
0.021459	0.027281	0.003277	0.007879	0.062262	0.085493	0.072310	0.017131	0.006244	0.013307
0.021811	0.027107	0.003296	0.007863	0.060518	0.084332	0.073714	0.017649	0.006159	0.013280
0.022204	0.026932	0.003315	0.007855	0.058945	0.083278	0.075157	0.018174	0.006070	0.013241
0.022635	0.026756	0.003334	0.007856	0.057537	0.082341	0.076638	0.018705	0.005979	0.013191
0.023102	0.026578	0.003352	0.007866	0.056288	0.081535	0.078151	0.019239	0.005885	0.013129
0.023601	0.026398	0.003369	0.007885	0.055193	0.080868	0.079694	0.019776	0.005789	0.013056
0.024129	0.026215	0.003386	0.007913	0.054247	0.080352	0.081262	0.020312	0.005693	0.012974
0.024682	0.026028	0.003402	0.007949	0.053443	0.079995	0.082854	0.020846	0.005595	0.012883
0.025258	0.025837	0.003417	0.007995	0.052778	0.079806	0.084467	0.021375	0.005498	0.012784
0.025853	0.025643	0.003431	0.008050	0.052246	0.079791	0.086102	0.021896	0.005400	0.012679
0.026463	0.025447	0.003444	0.008115	0.051843	0.079957	0.087760	0.022408	0.005302	0.012568
0.027085	0.025250	0.003456	0.008189	0.051565	0.080309	0.089444	0.022906	0.005205	0.012452
0.027713	0.025052	0.003467	0.008274	0.051405	0.080851	0.091153	0.023387	0.005109	0.012333
0.028346	0.024855	0.003476	0.008369	0.051358	0.081588	0.092891	0.023848	0.005014	0.012212
0.028978	0.024659	0.003484	0.008474	0.051417	0.082522	0.094655	0.024285	0.004920	0.012088
0.029606	0.024467	0.003490	0.008589	0.051576	0.083656	0.096447	0.024695	0.004828	0.011964
0.030226	0.024281	0.003494	0.008714	0.051828	0.084992	0.098263	0.025075	0.004736	0.011838
0.030834	0.024101	0.003496	0.008848	0.052165	0.086532	0.100104	0.025421	0.004647	0.011713
0.031426	0.023929	0.003495	0.008992	0.052579	0.088277	0.101966	0.025731	0.004559	0.011588
0.031998	0.023767	0.003492	0.009146	0.053062	0.090226	0.103847	0.026003	0.004473	0.011464
0.032547	0.023615	0.003486	0.009308	0.053604	0.092382	0.105745	0.026237	0.004389	0.011340
0.033068	0.023475	0.003478	0.009479	0.054195	0.094742	0.107656	0.026433	0.004308	0.011217
0.033559	0.023347	0.003466	0.009659	0.054824	0.097306	0.109577	0.026588	0.004230	0.011096
0.034017	0.023233	0.003452	0.009847	0.055479	0.100071	0.111504	0.026704	0.004154	0.010976
0.034440	0.023131	0.003436	0.010042	0.056148	0.103032	0.113433	0.026779	0.004081	0.010858
0.034830	0.023044	0.003416	0.010245	0.056820	0.106185	0.115355	0.026814	0.004012	0.010742
0.035185	0.022971	0.003394	0.010455	0.057484	0.109522	0.117265	0.026810	0.003946	0.010627
0.035506	0.022912	0.003370	0.010672	0.058130	0.113035	0.119152	0.026768	0.003883	0.010515
0.035793	0.022868	0.003344	0.010895	0.058750	0.116714	0.121007	0.026692	0.003824	0.010405
0.036046	0.022837	0.003315	0.011124	0.059334	0.120549	0.122821	0.026583	0.003769	0.010297
0.036265	0.022820	0.003285	0.011358	0.059874	0.124527	0.124585	0.026446	0.003718	0.010191
0.036449	0.022816	0.003253	0.011597	0.060362	0.128634	0.126292	0.026283	0.003670	0.010088
0.036599	0.022823	0.003220	0.011840	0.060790	0.132856	0.127934	0.026097	0.003626	0.009988
0.036712	0.022840	0.003185	0.012086	0.061151	0.137177	0.129509	0.025890	0.003586	0.009890
0.036790	0.022866	0.003149	0.012336	0.061443	0.141579	0.131011	0.025665	0.003550	0.009795
0.036832	0.022901	0.003111	0.012588	0.061667	0.146045	0.132439	0.025424	0.003518	0.009702
0.036839	0.022941	0.003073	0.012841	0.061827	0.150554	0.133787	0.025168	0.003489	0.009612
0.036811	0.022986	0.003034	0.013095	0.061929	0.155083	0.135052	0.024899	0.003465	0.009524
0.036750	0.023034	0.002994	0.013350	0.061980	0.159610	0.136234	0.024618	0.003444	0.009438
0.036657	0.023084	0.002954	0.013603	0.061990	0.164112	0.137331	0.024327	0.003428	0.009352
0.036532	0.023135	0.002913	0.013855	0.061964	0.168567	0.138347	0.024026	0.003415	0.009268
0.036378	0.023184	0.002871	0.014103	0.061910	0.172951	0.139284	0.023717	0.003406	0.009184
0.036194	0.023231	0.002830	0.014347	0.061837	0.177240	0.140148	0.023400	0.003401	0.009100
0.035984	0.023274	0.002788	0.014587	0.061752	0.181407	0.140946	0.023075	0.003400	0.009017
0.035750	0.023312	0.002747	0.014820	0.061664	0.185425	0.141686	0.022743	0.003403	0.008934
0.035493	0.023345	0.002706	0.015047	0.061578	0.189269	0.142376	0.022405	0.003409	0.008851
0.035216	0.023371	0.002665	0.015268	0.061502	0.192911	0.143024	0.022060	0.003418	0.008769
0.034919	0.023389	0.002624	0.015481	0.061442	0.196327	0.143635	0.021708	0.003431	0.008688
0.034606	0.023399	0.002584	0.015686	0.061406	0.199495	0.144216	0.021350	0.003447	0.008608
0.034276	0.023399	0.002544	0.015882	0.061402	0.202395	0.144769	0.020985	0.003466	0.008529
0.033932	0.023390	0.002505	0.016070	0.061437	0.205013	0.145295	0.020613	0.003487	0.008450
0.033574	0.023370	0.002466	0.016248	0.061523	0.207337	0.145795	0.020233	0.003511	0.008372
0.033202	0.023341	0.002428	0.016416	0.061669	0.209357	0.146266	0.019843	0.003537	0.008293
0.032817	0.023301	0.002391	0.016571	0.061887	0.211067	0.146706	0.019445	0.003566	0.008214
0.032418	0.023251	0.002354	0.016714	0.062189	0.212466	0.147112	0.019038	0.003595	0.008134
0.032007	0.023193	0.002319	0.016843	0.062587	0.213561	0.147483	0.018622	0.003627	0.008054
0.031584	0.023127	0.002285	0.016958	0.063094	0.214368	0.147818	0.018198	0.003659	0.007973
0.031152	0.023053	0.002254	0.017057	0.063719	0.214909	0.148122	0.017768	0.003692	0.007892
0.030711	0.022975	0.002224	0.017140	0.064474	0.215209	0.148397	0.017333	0.003726	0.007812
0.030265	0.022892	0.002198	0.017207	0.065369	0.215292	0.148649	0.016894	0.003760	0.007733
0.029816	0.022806	0.002175	0.017259	0.066412	0.215183	0.148881	0.016453	0.003793	0.007655
0.029366	0.022717	0.002156	0.017295	0.067613	0.214905	0.149101	0.016012	0.003827	0.007579
0.028917	0.022626	0.002142	0.017318	0.068979	0.214482	0.149312	0.015574	0.003859	0.007505
0.028472	0.022533	0.002133	0.017327	0.070517	0.213934	0.149520	0.015141	0.003891	0.007435
0.028035	0.022439	0.002129	0.017325	0.072233	0.213281	0.149730	0.014714	0.003922	0.007368
0.027606	0.022344	0.002131	0.017311	0.074132	0.212540	0.149944	0.014295	0.003951	0.007305
0.027190	0.022249	0.002140	0.017286	0.076220	0.211728	0.150167	0.013885	0.003980	0.007248
0.026788	0.022153	0.002157	0.017251	0.078501	0.210858	0.150399	0.013487	0.004007	0.007195
0.026402	0.022056	0.002180	0.017207	0.080979	0.209946	0.150641	0.013101	0.004033	0.007148
0.026034	0.021958	0.002213	0.017154	0.083658	0.209005	0.150889	0.012729	0.004058	0.007107
0.025685	0.021860	0.002254	0.017092	0.086539	0.208048	0.151142	0.012371	0.004083	0.007071
0.025357	0.021760	0.002304	0.017023	0.089626	0.207088	0.151393	0.012029	0.004106	0.007043
0.025051	0.021660	0.002365	0.016947	0.092921	0.206135	0.151637	0.011702	0.004130	0.007020
0.024768	0.021561	0.002437	0.016866	0.096424	0.205201	0.151871	0.011392	0.004152	0.007005
0.024508	0.021464	0.002520	0.016781	0.100137	0.204294	0.152089	0.011098	0.004175	0.006998
0.024275	0.021370	0.002615	0.016694	0.104058	0.203420	0.152288	0.010822	0.004197	0.006998
0.024069	0.021282	0.002723	0.016606	0.108186	0.202583	0.152461	0.010563	0.004220	0.007007
0.023892	0.021199	0.002844	0.016519	0.112517	0.201786	0.152601	0.010321	0.004242	0.007025
0.023746	0.021125	0.002980	0.016435	0.117047	0.201029	0.152702	0.010097	0.004264	0.007051
0.023632	0.021062	0.003130	0.016354	0.121770	0.200314	0.152757	0.009892	0.004287	0.007087
0.023552	0.021010	0.003295	0.016278	0.126678	0.199639	0.152763	0.009705	0.004310	0.007133
0.023506	0.020972	0.003475	0.016208	0.131761	0.199000	0.152723	0.009537	0.004334	0.007187
0.023496	0.020948	0.003672	0.016144	0.137009	0.198398	0.152640	0.009388	0.004358	0.007252
0.023521	0.020941	0.003886	0.016088	0.142408	0.197830	0.152522	0.009259	0.004383	0.007325
0.023582	0.020952	0.004117	0.016039	0.147946	0.197296	0.152376	0.009150	0.004409	0.007409
0.023679	0.020980	0.004365	0.015998	0.153605	0.196795	0.152209	0.009061	0.004435	0.007501
0.023810	0.021026	0.004632	0.015965	0.159369	0.196325	0.152023	0.008991	0.004462	0.007603
0.023977	0.021090	0.004918	0.015940	0.165220	0.195881	0.151824	0.008942	0.004491	0.007714
0.024178	0.021173	0.005223	0.015924	0.171136	0.195455	0.151612	0.008912	0.004520	0.007835
0.024415	0.021275	0.005547	0.015916	0.177097	0.195038	0.151387	0.008902	0.004550	0.007965
0.024687	0.021396	0.005893	0.015916	0.183078	0.194620	0.151150	0.008911	0.004581	0.008103
0.024995	0.021535	0.006259	0.015925	0.189053	0.194194	0.150900	0.008940	0.004612	0.008250
0.025341	0.021694	0.006647	0.015941	0.194998	0.193750	0.150638	0.008988	0.004644	0.008405
0.025724	0.021872	0.007058	0.015964	0.200884	0.193284	0.150365	0.009054	0.004676	0.008567
0.026147	0.022069	0.007492	0.015995	0.206681	0.192790	0.150086	0.009139	0.004708	0.008737
0.026608	0.022286	0.007950	0.016033	0.212359	0.192267	0.149802	0.009241	0.004740	0.008913
0.027109	0.022523	0.008432	0.016078	0.217886	0.191712	0.149515	0.009360	0.004771	0.009095
0.027649	0.022779	0.008938	0.016130	0.223227	0.191122	0.149230	0.009497	0.004801	0.009283
0.028229	0.023055	0.009470	0.016187	0.228346	0.190493	0.148949	0.009650	0.004830	0.009475
0.028846	0.023351	0.010027	0.016252	0.233208	0.189823	0.148675	0.009820	0.004857	0.009672
0.029501	0.023666	0.010608	0.016323	0.237779	0.189112	0.148413	0.010006	0.004882	0.009872
0.030193	0.024000	0.011215	0.016401	0.242029	0.188360	0.148166	0.010209	0.004905	0.010074
0.030922	0.024354	0.011848	0.016487	0.245930	0.187569	0.147938	0.010429	0.004926	0.010278
0.031686	0.024725	0.012504	0.016582	0.249461	0.186744	0.147735	0.010664	0.004943	0.010483
0.032485	0.025115	0.013186	0.016686	0.252605	0.185897	0.147562	0.010916	0.004959	0.010687
0.033319	0.025520	0.013891	0.016799	0.255348	0.185047	0.147422	0.011184	0.004971	0.010892
0.034186	0.025940	0.014620	0.016922	0.257678	0.184219	0.147319	0.011469	0.004982	0.011096
0.035087	0.026373	0.015372	0.017055	0.259591	0.183437	0.147255	0.011771	0.004990	0.011300
0.036019	0.026818	0.016145	0.017199	0.261090	0.182728	0.147230	0.012090	0.004996	0.011502
0.036981	0.027272	0.016939	0.017352	0.262189	0.182118	0.147244	0.012427	0.005001	0.011703
0.037971	0.027736	0.017752	0.017517	0.262910	0.181634	0.147297	0.012784	0.005005	0.011903
0.038987	0.028206	0.018583	0.017691	0.263274	0.181299	0.147392	0.013161	0.005009	0.012101
0.040026	0.028682	0.019431	0.017876	0.263303	0.181138	0.147531	0.013560	0.005013	0.012299
0.041085	0.029163	0.020293	0.018070	0.263018	0.181170	0.147721	0.013984	0.005017	0.012497
0.042161	0.029647	0.021168	0.018272	0.262437	0.181415	0.147973	0.014434	0.005023	0.012696
0.043251	0.030134	0.022054	0.018482	0.261582	0.181889	0.148305	0.014913	0.005031	0.012896
0.044352	0.030622	0.022948	0.018700	0.260477	0.182604	0.148733	0.015423	0.005042	0.013099
0.045460	0.031112	0.023849	0.018924	0.259145	0.183572	0.149276	0.015969	0.005057	0.013306
0.046571	0.031602	0.024754	0.019156	0.257608	0.184804	0.149949	0.016551	0.005075	0.013517
0.047680	0.032089	0.025660	0.019393	0.255891	0.186306	0.150768	0.017174	0.005098	0.013733
0.048784	0.032572	0.026563	0.019636	0.254018	0.188083	0.151745	0.017840	0.005126	0.013955
0.049875	0.033048	0.027461	0.019886	0.252015	0.190138	0.152892	0.018553	0.005159	0.014183
0.050950	0.033516	0.028349	0.020142	0.249907	0.192472	0.154219	0.019316	0.005199	0.014419
0.052000	0.033971	0.029222	0.020403	0.247716	0.195082	0.155734	0.020133	0.005246	0.014662
0.053020	0.034411	0.030078	0.020671	0.245462	0.197965	0.157445	0.021005	0.005300	0.014913
0.054001	0.034833	0.030910	0.020945	0.243160	0.201115	0.159357	0.021936	0.005361	0.015171
0.054937	0.035234	0.031714	0.021224	0.240823	0.204526	0.161476	0.022929	0.005431	0.015437
0.055821	0.035611	0.032484	0.021507	0.238460	0.208193	0.163805	0.023985	0.005509	0.015709
0.056648	0.035965	0.033214	0.021795	0.236077	0.212109	0.166347	0.025106	0.005596	0.015989
0.057414	0.036294	0.033899	0.022086	0.233680	0.216266	0.169102	0.026295	0.005692	0.016277
0.058115	0.036599	0.034534	0.022380	0.231272	0.220652	0.172069	0.027551	0.005797	0.016571
0.058751	0.036880	0.035115	0.022677	0.228858	0.225257	0.175246	0.028877	0.005912	0.016871
0.059318	0.037138	0.035638	0.022975	0.226446	0.230066	0.178628	0.030271	0.006036	0.017179
0.059817	0.037373	0.036100	0.023275	0.224038	0.235065	0.182212	0.031735	0.006169	0.017492
0.060245	0.037584	0.036500	0.023574	0.221640	0.240234	0.185991	0.033268	0.006312	0.017810
0.060600	0.037774	0.036834	0.023871	0.219253	0.245552	0.189958	0.034869	0.006464	0.018133
0.060880	0.037943	0.037102	0.024165	0.216882	0.250996	0.194103	0.036537	0.006625	0.018460
0.061082	0.038091	0.037303	0.024455	0.214528	0.256542	0.198416	0.038270	0.006795	0.018789
0.061202	0.038219	0.037433	0.024737	0.212196	0.262163	0.202885	0.040065	0.006975	0.019121
0.061240	0.038327	0.037492	0.025013	0.209892	0.267828	0.207500	0.041920	0.007163	0.019454
0.061193	0.038414	0.037479	0.025280	0.207622	0.273503	0.212249	0.043832	0.007361	0.019786
0.061063	0.038480	0.037394	0.025538	0.205394	0.279154	0.217122	0.045796	0.007567	0.020116
0.060851	0.038527	0.037239	0.025786	0.203215	0.284744	0.222105	0.047807	0.007783	0.020443
0.060560	0.038556	0.037017	0.026024	0.201088	0.290234	0.227186	0.049860	0.008008	0.020763
0.060197	0.038566	0.036730	0.026250	0.199015	0.295589	0.232355	0.051950	0.008242	0.021076
0.059767	0.038561	0.036384	0.026463	0.196993	0.300775	0.237606	0.054069	0.008486	0.021380
0.059277	0.038540	0.035982	0.026663	0.195019	0.305767	0.242939	0.056212	0.008739	0.021672
0.058731	0.038505	0.035529	0.026848	0.193088	0.310543	0.248358	0.058371	0.009001	0.021951
0.058136	0.038457	0.035029	0.027019	0.191197	0.315086	0.253865	0.060539	0.009273	0.022215
0.057496	0.038397	0.034487	0.027176	0.189345	0.319385	0.259464	0.062708	0.009553	0.022461
0.056816	0.038327	0.033906	0.027318	0.187534	0.323429	0.265152	0.064870	0.009842	0.022688
0.056100	0.038248	0.033288	0.027446	0.185766	0.327212	0.270927	0.067016	0.010139	0.022895
0.055354	0.038163	0.032638	0.027561	0.184044	0.330739	0.276781	0.069137	0.010444	0.023079
0.054581	0.038073	0.031959	0.027663	0.182370	0.334020	0.282701	0.071221	0.010757	0.023238
0.053787	0.037979	0.031253	0.027753	0.180745	0.337069	0.288675	0.073259	0.011078	0.023373
0.052976	0.037882	0.030523	0.027831	0.179167	0.339905	0.294690	0.075237	0.011406	0.023479
0.052154	0.037784	0.029772	0.027898	0.177633	0.342548	0.300740	0.077144	0.011742	0.023557
0.051325	0.037683	0.029003	0.027955	0.176136	0.345025	0.306827	0.078966	0.012084	0.023604
0.050495	0.037582	0.028220	0.028003	0.174670	0.347361	0.312963	0.080693	0.012434	0.023619
0.049666	0.037478	0.027426	0.028044	0.173226	0.349585	0.319162	0.082308	0.012791	0.023601
0.048842	0.037373	0.026623	0.028081	0.171796	0.351719	0.325439	0.083800	0.013154	0.023551
0.048027	0.037266	0.025816	0.028114	0.170374	0.353786	0.331805	0.085158	0.013524	0.023470
0.047223	0.037157	0.025006	0.028148	0.168951	0.355802	0.338268	0.086370	0.013899	0.023360
0.046432	0.037045	0.024197	0.028184	0.167520	0.357780	0.344834	0.087432	0.014281	0.023221
0.045658	0.036931	0.023393	0.028225	0.166072	0.359728	0.351508	0.088337	0.014668	0.023057
0.044901	0.036815	0.022594	0.028272	0.164601	0.361650	0.358297	0.089080	0.015061	0.022869
0.044164	0.036698	0.021804	0.028326	0.163097	0.363550	0.365209	0.089656	0.015461	0.022660
0.043449	0.036580	0.021025	0.028391	0.161552	0.365425	0.372253	0.090065	0.015870	0.022431
0.042757	0.036462	0.020258	0.028467	0.159955	0.367273	0.379441	0.090305	0.016289	0.022184
0.042089	0.036344	0.019505	0.028556	0.158296	0.369086	0.386780	0.090377	0.016720	0.021921
0.041444	0.036225	0.018768	0.028661	0.156559	0.370857	0.394278	0.090285	0.017165	0.021643
0.040823	0.036107	0.018048	0.028781	0.154731	0.372575	0.401937	0.090034	0.017627	0.021353
0.040225	0.035988	0.017345	0.028919	0.152795	0.374230	0.409754	0.089630	0.018110	0.021051
0.039649	0.035867	0.016661	0.029076	0.150737	0.375814	0.417720	0.089081	0.018618	0.020740
0.039092	0.035743	0.015996	0.029253	0.148543	0.377317	0.425825	0.088397	0.019157	0.020422
0.038554	0.035614	0.015350	0.029449	0.146202	0.378733	0.434055	0.087586	0.019733	0.020096
0.038031	0.035479	0.014725	0.029664	0.143705	0.380057	0.442396	0.086658	0.020353	0.019766
0.037525	0.035335	0.014120	0.029900	0.141051	0.381285	0.450832	0.085621	0.021024	0.019431
0.037033	0.035183	0.013536	0.030154	0.138242	0.382416	0.459345	0.084487	0.021752	0.019093
0.036556	0.035022	0.012973	0.030427	0.135288	0.383448	0.467913	0.083265	0.022542	0.018753
0.036092	0.034853	0.012431	0.030720	0.132201	0.384378	0.476505	0.081968	0.023401	0.018411
0.035643	0.034676	0.011911	0.031031	0.128994	0.385200	0.485089	0.080606	0.024334	0.018068
0.035208	0.034491	0.011411	0.031361	0.125680	0.385910	0.493631	0.079188	0.025346	0.017726
0.034787	0.034301	0.010932	0.031708	0.122273	0.386501	0.502097	0.077725	0.026442	0.017385
0.034379	0.034106	0.010474	0.032073	0.118785	0.386975	0.510453	0.076225	0.027627	0.017047
0.033983	0.033906	0.010037	0.032455	0.115230	0.387344	0.518660	0.074697	0.028906	0.016712
0.033600	0.033703	0.009620	0.032852	0.111619	0.387628	0.526675	0.073151	0.030284	0.016383
0.033227	0.033497	0.009224	0.033264	0.107965	0.387849	0.534449	0.071597	0.031764	0.016059
0.032863	0.033287	0.008849	0.033687	0.104282	0.388034	0.541926	0.070041	0.033351	0.015742
0.032507	0.033074	0.008494	0.034119	0.100582	0.388202	0.549045	0.068491	0.035049	0.015434
0.032157	0.032856	0.008159	0.034558	0.096876	0.388369	0.555745	0.066954	0.036862	0.015134
0.031811	0.032634	0.007845	0.035002	0.093175	0.388548	0.561963	0.065435	0.038795	0.014843
0.031467	0.032406	0.007550	0.035447	0.089489	0.388749	0.567637	0.063941	0.040854	0.014562
0.031123	0.032172	0.007274	0.035891	0.085828	0.388978	0.572718	0.062475	0.043042	0.014291
0.030779	0.031931	0.007017	0.036332	0.082199	0.389239	0.577163	0.061044	0.045365	0.014031
0.030433	0.031683	0.006779	0.036768	0.078612	0.389532	0.580945	0.059650	0.047826	0.013780
0.030085	0.031429	0.006558	0.037198	0.075074	0.389854	0.584044	0.058297	0.050429	0.013540
0.029733	0.031170	0.006354	0.037620	0.071593	0.390194	0.586449	0.056988	0.053177	0.013310
0.029377	0.030907	0.006166	0.038034	0.068176	0.390539	0.588145	0.055726	0.056070	0.013090
0.029018	0.030641	0.005995	0.038438	0.064829	0.390874	0.589119	0.054512	0.059110	0.012879
0.028655	0.030375	0.005838	0.038829	0.061560	0.391181	0.589362	0.053349	0.062298	0.012677
0.028289	0.030110	0.005695	0.039207	0.058372	0.391442	0.588879	0.052238	0.065632	0.012485
0.027921	0.029848	0.005567	0.039569	0.055272	0.391644	0.587698	0.051181	0.069112	0.012302
0.027550	0.029589	0.005452	0.039914	0.052261	0.391770	0.585866	0.050177	0.072735	0.012127
0.027178	0.029335	0.005349	0.040239	0.049344	0.391808	0.583441	0.049227	0.076502	0.011960
0.026804	0.029086	0.005259	0.040544	0.046522	0.391743	0.580488	0.048330	0.080407	0.011799
0.026429	0.028842	0.005181	0.040827	0.043797	0.391559	0.577065	0.047485	0.084450	0.011645
0.026054	0.028604	0.005115	0.041089	0.041173	0.391245	0.573225	0.046693	0.088624	0.011496
0.025680	0.028372	0.005060	0.041329	0.038649	0.390790	0.569017	0.045952	0.092925	0.011351
0.025308	0.028148	0.005016	0.041549	0.036229	0.390184	0.564488	0.045262	0.097347	0.011212
0.024939	0.027933	0.004983	0.041748	0.033912	0.389418	0.559679	0.044619	0.101883	0.011077
0.024574	0.027728	0.004961	0.041927	0.031701	0.388481	0.554632	0.044023	0.106526	0.010947
0.024215	0.027536	0.004950	0.042086	0.029595	0.387357	0.549379	0.043468	0.111269	0.010821
0.023864	0.027357	0.004949	0.042223	0.027595	0.386037	0.543945	0.042953	0.116102	0.010701
0.023523	0.027192	0.004958	0.042339	0.025701	0.384510	0.538350	0.042473	0.121014	0.010585
0.023192	0.027043	0.004978	0.042433	0.023913	0.382776	0.532603	0.042026	0.125993	0.010474
0.022874	0.026910	0.005007	0.042506	0.022233	0.380838	0.526709	0.041606	0.131024	0.010368
0.022569	0.026794	0.005046	0.042558	0.020660	0.378702	0.520668	0.041211	0.136091	0.010266
0.022279	0.026694	0.005095	0.042590	0.019195	0.376373	0.514482	0.040837	0.141176	0.010168
0.022003	0.026614	0.005154	0.042604	0.017838	0.373860	0.508154	0.040478	0.146262	0.010075
0.021744	0.026552	0.005222	0.042601	0.016589	0.371178	0.501696	0.040130	0.151327	0.009986
0.021502	0.026510	0.005299	0.042582	0.015448	0.368344	0.495122	0.039788	0.156350	0.009902
0.021277	0.026489	0.005385	0.042549	0.014415	0.365384	0.488449	0.039444	0.161309	0.009822
0.021070	0.026489	0.005481	0.042501	0.013490	0.362322	0.481691	0.039093	0.166179	0.009748
0.020880	0.026510	0.005586	0.042440	0.012673	0.359186	0.474856	0.038731	0.170934	0.009679
0.020708	0.026552	0.005700	0.042365	0.011966	0.356005	0.467957	0.038351	0.175548	0.009616
0.020553	0.026616	0.005824	0.042276	0.011372	0.352808	0.461008	0.037950	0.179995	0.009559
0.020414	0.026701	0.005957	0.042171	0.010892	0.349622	0.454035	0.037525	0.184254	0.009509
0.020291	0.026807	0.006099	0.042051	0.010529	0.346469	0.447075	0.037073	0.188306	0.009465
0.020182	0.026933	0.006251	0.041913	0.010286	0.343368	0.440170	0.036594	0.192139	0.009429
0.020086	0.027079	0.006412	0.041757	0.010168	0.340333	0.433363	0.036088	0.195738	0.009400
0.020001	0.027244	0.006584	0.041583	0.010176	0.337378	0.426691	0.035555	0.199093	0.009378
0.019925	0.027427	0.006765	0.041390	0.010316	0.334519	0.420189	0.035000	0.202189	0.009363
0.019857	0.027627	0.006958	0.041181	0.010591	0.331771	0.413884	0.034426	0.205017	0.009354
0.019794	0.027844	0.007160	0.040956	0.011007	0.329150	0.407798	0.033836	0.207572	0.009352
0.019733	0.028076	0.007374	0.040716	0.011568	0.326672	0.401951	0.033234	0.209855	0.009357
0.019673	0.028322	0.007599	0.040464	0.012279	0.324355	0.396357	0.032624	0.211875	0.009368
0.019610	0.028581	0.007835	0.040201	0.013145	0.322216	0.391028	0.032007	0.213647	0.009385
0.019543	0.028852	0.008082	0.039928	0.014172	0.320269	0.385972	0.031388	0.215186	0.009409
0.019468	0.029133	0.008339	0.039645	0.015363	0.318526	0.381197	0.030768	0.216507	0.009440
0.019385	0.029423	0.008608	0.039354	0.016723	0.316996	0.376704	0.030150	0.217628	0.009478
0.019291	0.029718	0.008887	0.039053	0.018258	0.315682	0.372493	0.029536	0.218571	0.009524
0.019183	0.030019	0.009176	0.038743	0.019971	0.314587	0.368559	0.028929	0.219356	0.009578
0.019061	0.030325	0.009476	0.038424	0.021867	0.313711	0.364894	0.028331	0.220004	0.009640
0.018925	0.030633	0.009786	0.038095	0.023948	0.313052	0.361482	0.027744	0.220534	0.009712
0.018775	0.030946	0.010107	0.037755	0.026219	0.312608	0.358308	0.027172	0.220961	0.009793
0.018613	0.031261	0.010437	0.037405	0.028682	0.312376	0.355354	0.026617	0.221296	0.009884
0.018438	0.031579	0.010777	0.037044	0.031341	0.312350	0.352607	0.026081	0.221550	0.009984
0.018254	0.031899	0.011126	0.036673	0.034197	0.312525	0.350059	0.025568	0.221726	0.010095
0.018061	0.032221	0.011484	0.036291	0.037254	0.312893	0.347709	0.025079	0.221829	0.010216
0.017862	0.032543	0.011850	0.035901	0.040514	0.313451	0.345556	0.024618	0.221859	0.010348
0.017659	0.032864	0.012224	0.035504	0.043977	0.314195	0.343602	0.024187	0.221813	0.010491
0.017454	0.033181	0.012604	0.035104	0.047645	0.315120	0.341843	0.023788	0.221686	0.010645
0.017251	0.033493	0.012990	0.034701	0.051519	0.316220	0.340275	0.023422	0.221471	0.010809
0.017051	0.033797	0.013379	0.034300	0.055597	0.317481	0.338891	0.023090	0.221162	0.010984
0.016856	0.034090	0.013772	0.033902	0.059881	0.318888	0.337684	0.022794	0.220752	0.011169
0.016669	0.034371	0.014165	0.033508	0.064369	0.320421	0.336646	0.022534	0.220234	0.011363
0.016492	0.034638	0.014558	0.033121	0.069059	0.322055	0.335770	0.022311	0.219601	0.011568
0.016326	0.034889	0.014949	0.032742	0.073949	0.323765	0.335048	0.022126	0.218847	0.011781
0.016173	0.035124	0.015336	0.032374	0.079038	0.325520	0.334476	0.021978	0.217969	0.012002
0.016034	0.035345	0.015718	0.032019	0.084323	0.327292	0.334051	0.021869	0.216960	0.012231
0.015910	0.035550	0.016093	0.031681	0.089801	0.329052	0.333774	0.021799	0.215815	0.012467
0.015803	0.035742	0.016460	0.031361	0.095468	0.330777	0.333649	0.021769	0.214533	0.012710
0.015713	0.035919	0.016817	0.031063	0.101321	0.332445	0.333679	0.021779	0.213113	0.012958
0.015642	0.036083	0.017163	0.030791	0.107355	0.334038	0.333869	0.021829	0.211557	0.013212
0.015588	0.036232	0.017496	0.030545	0.113561	0.335538	0.334226	0.021920	0.209866	0.013471
0.015554	0.036366	0.017813	0.030330	0.119934	0.336928	0.334752	0.022052	0.208040	0.013734
0.015539	0.036485	0.018116	0.030146	0.126463	0.338191	0.335450	0.022225	0.206081	0.014003
0.015544	0.036588	0.018401	0.029997	0.133140	0.339306	0.336321	0.022439	0.203988	0.014276
0.015568	0.036675	0.018669	0.029882	0.139954	0.340252	0.337361	0.022694	0.201762	0.014553
0.015611	0.036745	0.018918	0.029803	0.146893	0.341010	0.338569	0.022991	0.199403	0.014833
0.015672	0.036799	0.019147	0.029762	0.153943	0.341572	0.339943	0.023331	0.196910	0.015116
0.015752	0.036834	0.019356	0.029759	0.161088	0.341941	0.341483	0.023715	0.194281	0.015400
0.015850	0.036849	0.019544	0.029795	0.168311	0.342128	0.343185	0.024145	0.191517	0.015687
0.015964	0.036844	0.019708	0.029870	0.175592	0.342154	0.345042	0.024623	0.188616	0.015974
0.016094	0.036819	0.019847	0.029985	0.182911	0.342039	0.347048	0.025150	0.185577	0.016262
0.016239	0.036774	0.019960	0.030140	0.190244	0.341800	0.349190	0.025727	0.182404	0.016550
0.016399	0.036709	0.020045	0.030334	0.197572	0.341453	0.351452	0.026355	0.179110	0.016837
0.016571	0.036627	0.020102	0.030567	0.204876	0.341011	0.353812	0.027036	0.175711	0.017124
0.016756	0.036527	0.020131	0.030838	0.212142	0.340485	0.356245	0.027769	0.172226	0.017410
0.016953	0.036412	0.020132	0.031146	0.219358	0.339884	0.358722	0.028555	0.168676	0.017697
0.017160	0.036282	0.020107	0.031489	0.226513	0.339213	0.361218	0.029394	0.165078	0.017985
0.017378	0.036139	0.020056	0.031866	0.233598	0.338475	0.363709	0.030285	0.161450	0.018275
0.017606	0.035984	0.019982	0.032275	0.240609	0.337667	0.366177	0.031229	0.157807	0.018568
0.017845	0.035818	0.019886	0.032715	0.247544	0.336783	0.368608	0.032224	0.154164	0.018862
0.018096	0.035643	0.019769	0.033183	0.254412	0.335811	0.370987	0.033269	0.150533	0.019161
0.018357	0.035460	0.019634	0.033678	0.261223	0.334736	0.373298	0.034363	0.146928	0.019462
0.018631	0.035269	0.019481	0.034197	0.267986	0.333544	0.375521	0.035503	0.143359	0.019769
0.018918	0.035071	0.019315	0.034736	0.274708	0.332224	0.377637	0.036689	0.139840	0.020080
0.019218	0.034868	0.019138	0.035295	0.281393	0.330773	0.379623	0.037916	0.136383	0.020398
0.019534	0.034660	0.018952	0.035868	0.288040	0.329192	0.381456	0.039184	0.133001	0.020721
0.019866	0.034449	0.018761	0.036454	0.294646	0.327480	0.383106	0.040488	0.129708	0.021051
0.020216	0.034235	0.018570	0.037048	0.301201	0.325639	0.384543	0.041826	0.126513	0.021387
0.020585	0.034018	0.018380	0.037649	0.307696	0.323663	0.385736	0.043194	0.123429	0.021730
0.020973	0.033800	0.018196	0.038253	0.314115	0.321542	0.386657	0.044588	0.120464	0.022079
0.021382	0.033581	0.018021	0.038859	0.320444	0.319265	0.387285	0.046004	0.117631	0.022435
0.021814	0.033360	0.017858	0.039465	0.326667	0.316815	0.387612	0.047436	0.114941	0.022795
0.022269	0.033137	0.017711	0.040070	0.332769	0.314175	0.387642	0.048880	0.112404	0.023160
0.022750	0.032914	0.017583	0.040672	0.338731	0.311329	0.387390	0.050331	0.110029	0.023529
0.023258	0.032690	0.017476	0.041270	0.344534	0.308263	0.386875	0.051782	0.107824	0.023900
0.023796	0.032465	0.017393	0.041862	0.350154	0.304974	0.386118	0.053228	0.105796	0.024273
0.024364	0.032240	0.017337	0.042446	0.355565	0.301467	0.385138	0.054663	0.103951	0.024646
0.024965	0.032015	0.017310	0.043020	0.360744	0.297759	0.383957	0.056079	0.102294	0.025021
0.025600	0.031792	0.017316	0.043582	0.365671	0.293873	0.382601	0.057469	0.100826	0.025398
0.026272	0.031569	0.017355	0.044130	0.370339	0.289836	0.381100	0.058826	0.099552	0.025778
0.026981	0.031347	0.017432	0.044664	0.374746	0.285677	0.379492	0.060140	0.098471	0.026161
0.027729	0.031125	0.017546	0.045182	0.378901	0.281426	0.377816	0.061403	0.097584	0.026551
0.028519	0.030902	0.017700	0.045685	0.382818	0.277115	0.376116	0.062605	0.096891	0.026949
0.029349	0.030678	0.017895	0.046174	0.386505	0.272773	0.374433	0.063735	0.096391	0.027354
0.030222	0.030451	0.018133	0.046649	0.389973	0.268428	0.372808	0.064785	0.096079	0.027769
0.031137	0.030220	0.018415	0.047111	0.393223	0.264107	0.371282	0.065744	0.095953	0.028194
0.032094	0.029983	0.018741	0.047559	0.396255	0.259838	0.369887	0.066603	0.096007	0.028629
0.033092	0.029741	0.019112	0.047995	0.399065	0.255649	0.368655	0.067355	0.096233	0.029075
0.034129	0.029493	0.019529	0.048416	0.401642	0.251566	0.367613	0.067995	0.096626	0.029531
0.035205	0.029241	0.019991	0.048821	0.403981	0.247609	0.366784	0.068519	0.097177	0.029999
0.036315	0.028984	0.020499	0.049208	0.406083	0.243799	0.366189	0.068925	0.097878	0.030480
0.037459	0.028725	0.021053	0.049574	0.407964	0.240153	0.365842	0.069212	0.098720	0.030972
0.038632	0.028465	0.021652	0.049916	0.409649	0.236686	0.365756	0.069377	0.099695	0.031476
0.039831	0.028206	0.022294	0.050231	0.411173	0.233411	0.365941	0.069420	0.100792	0.031991
0.041054	0.027949	0.022980	0.050517	0.412567	0.230339	0.366399	0.069341	0.101999	0.032517
0.042295	0.027695	0.023708	0.050772	0.413864	0.227479	0.367130	0.069142	0.103305	0.033054
0.043551	0.027446	0.024476	0.050991	0.415089	0.224837	0.368128	0.068826	0.104697	0.033601
0.044818	0.027203	0.025283	0.051173	0.416266	0.222416	0.369382	0.068396	0.106164	0.034158
0.046092	0.026967	0.026128	0.051317	0.417415	0.220217	0.370875	0.067856	0.107691	0.034723
0.047367	0.026740	0.027010	0.051420	0.418548	0.218237	0.372586	0.067208	0.109264	0.035297
0.048638	0.026522	0.027927	0.051485	0.419671	0.216471	0.374489	0.066456	0.110870	0.035878
0.049901	0.026314	0.028878	0.051514	0.420786	0.214910	0.376552	0.065604	0.112492	0.036465
0.051149	0.026117	0.029861	0.051511	0.421891	0.213542	0.378744	0.064655	0.114117	0.037057
0.052378	0.025932	0.030875	0.051480	0.422978	0.212352	0.381026	0.063614	0.115729	0.037653
0.053582	0.025758	0.031917	0.051423	0.424038	0.211324	0.383358	0.062483	0.117314	0.038253
0.054756	0.025598	0.032988	0.051345	0.425057	0.210439	0.385696	0.061270	0.118858	0.038854
0.055894	0.025451	0.034084	0.051247	0.426016	0.209678	0.387993	0.059980	0.120347	0.039454
0.056991	0.025317	0.035206	0.051132	0.426893	0.209023	0.390205	0.058621	0.121768	0.040051
0.058041	0.025196	0.036353	0.051000	0.427658	0.208455	0.392288	0.057202	0.123107	0.040643
0.059039	0.025089	0.037525	0.050854	0.428280	0.207952	0.394209	0.055731	0.124354	0.041226
0.059980	0.024993	0.038722	0.050694	0.428724	0.207493	0.395940	0.054216	0.125499	0.041795
0.060858	0.024911	0.039945	0.050523	0.428954	0.207054	0.397459	0.052667	0.126539	0.042347
0.061670	0.024841	0.041193	0.050342	0.428932	0.206613	0.398752	0.051089	0.127469	0.042877
0.062411	0.024783	0.042468	0.050155	0.428618	0.206144	0.399807	0.049491	0.128288	0.043381
0.063078	0.024737	0.043770	0.049962	0.427975	0.205621	0.400611	0.047881	0.128994	0.043854
0.063669	0.024703	0.045098	0.049768	0.426973	0.205017	0.401152	0.046265	0.129587	0.044292
0.064183	0.024680	0.046453	0.049573	0.425592	0.204305	0.401424	0.044652	0.130066	0.044694
0.064620	0.024667	0.047834	0.049380	0.423823	0.203462	0.401425	0.043050	0.130430	0.045059
0.064982	0.024663	0.049241	0.049191	0.421666	0.202469	0.401168	0.041468	0.130677	0.045387
0.065271	0.024666	0.050674	0.049009	0.419123	0.201310	0.400671	0.039915	0.130805	0.045677
0.065489	0.024676	0.052133	0.048834	0.416201	0.199976	0.399962	0.038401	0.130812	0.045931
0.065642	0.024691	0.053617	0.048668	0.412914	0.198461	0.399065	0.036934	0.130696	0.046149
0.065731	0.024711	0.055124	0.048513	0.409287	0.196760	0.398005	0.035523	0.130454	0.046332
0.065761	0.024736	0.056653	0.048370	0.405352	0.194873	0.396805	0.034176	0.130083	0.046480
0.065734	0.024766	0.058202	0.048240	0.401146	0.192804	0.395486	0.032902	0.129579	0.046593
0.065651	0.024802	0.059768	0.048123	0.396704	0.190561	0.394068	0.031706	0.128943	0.046671
0.065513	0.024844	0.061349	0.048020	0.392057	0.188159	0.392570	0.030597	0.128178	0.046715
0.065320	0.024895	0.062941	0.047932	0.387237	0.185613	0.391003	0.029580	0.127288	0.046725
0.065073	0.024955	0.064541	0.047858	0.382273	0.182940	0.389375	0.028662	0.126278	0.046701
0.064770	0.025026	0.066146	0.047799	0.377194	0.180157	0.387692	0.027847	0.125151	0.046644
0.064414	0.025110	0.067754	0.047756	0.372025	0.177281	0.385954	0.027141	0.123911	0.046556
0.064005	0.025207	0.069364	0.047733	0.366792	0.174329	0.384162	0.026549	0.122564	0.046437
0.063544	0.025318	0.070977	0.047732	0.361521	0.171316	0.382320	0.026076	0.121116	0.046291
0.063035	0.025444	0.072595	0.047756	0.356239	0.168257	0.380428	0.025724	0.119575	0.046119
0.062479	0.025585	0.074218	0.047808	0.350970	0.165162	0.378491	0.025499	0.117951	0.045923
0.061883	0.025741	0.075849	0.047890	0.345741	0.162043	0.376510	0.025405	0.116254	0.045704
0.061250	0.025913	0.077489	0.048004	0.340579	0.158908	0.374485	0.025443	0.114496	0.045464
0.060587	0.026099	0.079138	0.048151	0.335509	0.155767	0.372410	0.025618	0.112684	0.045204
0.059899	0.026300	0.080795	0.048331	0.330551	0.152626	0.370276	0.025932	0.110827	0.044924
0.059191	0.026514	0.082460	0.048545	0.325721	0.149494	0.368072	0.026387	0.108932	0.044624
0.058468	0.026741	0.084129	0.048792	0.321030	0.146376	0.365784	0.026985	0.107005	0.044304
0.057734	0.026979	0.085800	0.049071	0.316488	0.143278	0.363400	0.027729	0.105050	0.043964
0.056995	0.027229	0.087470	0.049381	0.312101	0.140205	0.360909	0.028618	0.103073	0.043602
0.056255	0.027489	0.089134	0.049719	0.307877	0.137163	0.358304	0.029656	0.101076	0.043218
0.055519	0.027760	0.090787	0.050082	0.303824	0.134157	0.355582	0.030843	0.099063	0.042808
0.054792	0.028041	0.092425	0.050470	0.299949	0.131192	0.352746	0.032180	0.097035	0.042371
0.054077	0.028334	0.094041	0.050880	0.296259	0.128275	0.349801	0.033667	0.094995	0.041906
0.053378	0.028640	0.095628	0.051312	0.292758	0.125412	0.346755	0.035306	0.092943	0.041411
0.052699	0.028958	0.097179	0.051768	0.289444	0.122607	0.343622	0.037096	0.090882	0.040887
0.052041	0.029291	0.098686	0.052247	0.286317	0.119866	0.340409	0.039036	0.088814	0.040334
0.051408	0.029638	0.100144	0.052752	0.283372	0.117192	0.337127	0.041127	0.086742	0.039753
0.050800	0.030001	0.101546	0.053287	0.280606	0.114588	0.333782	0.043367	0.084671	0.039146
0.050219	0.030381	0.102891	0.053857	0.278013	0.112059	0.330378	0.045757	0.082605	0.038514
0.049665	0.030777	0.104175	0.054467	0.275584	0.109605	0.326924	0.048294	0.080546	0.037860
0.049137	0.031189	0.105397	0.055122	0.273308	0.107230	0.323433	0.050979	0.078496	0.037185
0.048635	0.031619	0.106557	0.055829	0.271174	0.104934	0.319923	0.053810	0.076458	0.036490
0.048156	0.032066	0.107656	0.056590	0.269166	0.102717	0.316415	0.056786	0.074433	0.035777
0.047699	0.032532	0.108694	0.057411	0.267268	0.100579	0.312933	0.059908	0.072421	0.035047
0.047260	0.033017	0.109668	0.058296	0.265466	0.098517	0.309499	0.063174	0.070425	0.034303
0.046837	0.033523	0.110577	0.059250	0.263740	0.096528	0.306133	0.066582	0.068449	0.033548
0.046428	0.034051	0.111420	0.060277	0.262073	0.094609	0.302853	0.070130	0.066495	0.032785
0.046031	0.034603	0.112197	0.061382	0.260444	0.092753	0.299672	0.073816	0.064568	0.032017
0.045645	0.035182	0.112910	0.062571	0.258836	0.090955	0.296600	0.077636	0.062670	0.031249
0.045268	0.035786	0.113563	0.063848	0.257231	0.089207	0.293645	0.081588	0.060806	0.030483
0.044898	0.036419	0.114160	0.065216	0.255617	0.087504	0.290810	0.085668	0.058980	0.029722
0.044536	0.037078	0.114709	0.066680	0.253981	0.085839	0.288096	0.089872	0.057195	0.028968
0.044179	0.037765	0.115220	0.068241	0.252314	0.084208	0.285497	0.094198	0.055457	0.028225
0.043826	0.038480	0.115702	0.069900	0.250616	0.082610	0.283007	0.098641	0.053770	0.027493
0.043476	0.039221	0.116164	0.071659	0.248894	0.081043	0.280614	0.103197	0.052138	0.026775
0.043128	0.039988	0.116618	0.073519	0.247162	0.079507	0.278306	0.107860	0.050568	0.026072
0.042783	0.040781	0.117073	0.075481	0.245440	0.077999	0.276068	0.112626	0.049064	0.025387
0.042439	0.041599	0.117538	0.077547	0.243750	0.076522	0.273885	0.117486	0.047632	0.024720
0.042095	0.042443	0.118020	0.079720	0.242109	0.075074	0.271743	0.122433	0.046279	0.024074
0.041752	0.043314	0.118527	0.082000	0.240535	0.073654	0.269627	0.127459	0.045011	0.023450
0.041407	0.044212	0.119065	0.084390	0.239044	0.072261	0.267525	0.132555	0.043833	0.022847
0.041060	0.045138	0.119643	0.086893	0.237650	0.070894	0.265423	0.137711	0.042751	0.022268
0.040712	0.046094	0.120268	0.089510	0.236367	0.069551	0.263306	0.142916	0.041768	0.021713
0.040363	0.047080	0.120952	0.092242	0.235208	0.068229	0.261155	0.148158	0.040888	0.021182
0.040014	0.048096	0.121704	0.095090	0.234184	0.066929	0.258951	0.153423	0.040116	0.020675
0.039665	0.049142	0.122538	0.098056	0.233302	0.065654	0.256673	0.158695	0.039455	0.020194
0.039317	0.050218	0.123462	0.101137	0.232568	0.064406	0.254303	0.163958	0.038906	0.019738
0.038974	0.051322	0.124486	0.104334	0.231988	0.063188	0.251826	0.169192	0.038473	0.019308
0.038636	0.052455	0.125619	0.107644	0.231564	0.062004	0.249229	0.174376	0.038157	0.018904
0.038306	0.053614	0.126865	0.111064	0.231299	0.060856	0.246505	0.179485	0.037960	0.018526
0.037988	0.054799	0.128231	0.114591	0.231195	0.059743	0.243651	0.184495	0.037881	0.018175
0.037685	0.056006	0.129720	0.118221	0.231255	0.058667	0.240663	0.189377	0.037921	0.017851
0.037399	0.057235	0.131336	0.121953	0.231481	0.057627	0.237537	0.194102	0.038080	0.017555
0.037132	0.058482	0.133082	0.125784	0.231873	0.056621	0.234266	0.198639	0.038357	0.017288
0.036887	0.059744	0.134960	0.129710	0.232430	0.055649	0.230846	0.202959	0.038750	0.017050
0.036666	0.061021	0.136970	0.133728	0.233149	0.054707	0.227272	0.207032	0.039258	0.016842
0.036469	0.062310	0.139112	0.137833	0.234021	0.053794	0.223542	0.210831	0.039879	0.016664
0.036298	0.063613	0.141385	0.142021	0.235038	0.052908	0.219659	0.214334	0.040609	0.016517
0.036151	0.064929	0.143783	0.146287	0.236188	0.052046	0.215632	0.217527	0.041447	0.016401
0.036029	0.066259	0.146303	0.150625	0.237455	0.051208	0.211472	0.220401	0.042389	0.016317
0.035930	0.067603	0.148935	0.155028	0.238824	0.050393	0.207198	0.222952	0.043432	0.016264
0.035853	0.068964	0.151674	0.159489	0.240275	0.049601	0.202826	0.225175	0.044574	0.016245
0.035796	0.070343	0.154509	0.164002	0.241788	0.048829	0.198375	0.227067	0.045811	0.016258
0.035757	0.071741	0.157434	0.168559	0.243335	0.048078	0.193861	0.228630	0.047141	0.016304
0.035733	0.073158	0.160439	0.173156	0.244890	0.047344	0.189301	0.229866	0.048560	0.016384
0.035722	0.074596	0.163518	0.177784	0.246421	0.046625	0.184709	0.230786	0.050065	0.016498
0.035720	0.076054	0.166661	0.182433	0.247896	0.045919	0.180105	0.231402	0.051652	0.016646
0.035724	0.077530	0.169861	0.187092	0.249283	0.045222	0.175507	0.231732	0.053319	0.016827
0.035731	0.079022	0.173106	0.191748	0.250548	0.044533	0.170934	0.231800	0.055063	0.017042
0.035738	0.080527	0.176384	0.196385	0.251660	0.043847	0.166404	0.231632	0.056881	0.017291
0.035742	0.082043	0.179682	0.200988	0.252586	0.043163	0.161935	0.231261	0.058771	0.017573
0.035741	0.083567	0.182986	0.205541	0.253296	0.042477	0.157540	0.230718	0.060733	0.017890
0.035732	0.085097	0.186280	0.210026	0.253764	0.041790	0.153232	0.230035	0.062766	0.018240
0.035713	0.086634	0.189553	0.214426	0.253968	0.041098	0.149022	0.229243	0.064869	0.018625
0.035682	0.088178	0.192795	0.218722	0.253886	0.040401	0.144920	0.228371	0.067046	0.019044
0.035638	0.089731	0.195997	0.222902	0.253503	0.039700	0.140933	0.227450	0.069296	0.019498
0.035581	0.091298	0.199154	0.226956	0.252801	0.038996	0.137067	0.226513	0.071621	0.019990
0.035511	0.092882	0.202261	0.230880	0.251764	0.038289	0.133329	0.225593	0.074022	0.020520
0.035427	0.094486	0.205316	0.234666	0.250375	0.037581	0.129721	0.224728	0.076500	0.021094
0.035329	0.096114	0.208312	0.238311	0.248621	0.036874	0.126247	0.223954	0.079054	0.021713
0.035217	0.097767	0.211242	0.241805	0.246495	0.036167	0.122909	0.223310	0.081682	0.022382
0.035089	0.099450	0.214100	0.245141	0.243992	0.035461	0.119708	0.222835	0.084380	0.023105
0.034945	0.101165	0.216874	0.248311	0.241115	0.034758	0.116643	0.222567	0.087147	0.023886
0.034783	0.102917	0.219557	0.251307	0.237872	0.034056	0.113713	0.222540	0.089975	0.024727
0.034603	0.104710	0.222141	0.254126	0.234276	0.033358	0.110914	0.222789	0.092860	0.025634
0.034404	0.106551	0.224620	0.256770	0.230343	0.032662	0.108242	0.223342	0.095794	0.026609
0.034185	0.108442	0.226990	0.259243	0.226091	0.031970	0.105695	0.224228	0.098768	0.027658
0.033946	0.110387	0.229251	0.261551	0.221547	0.031283	0.103267	0.225470	0.101772	0.028786
0.033688	0.112388	0.231405	0.263703	0.216743	0.030601	0.100957	0.227089	0.104794	0.029997
0.033410	0.114448	0.233456	0.265706	0.211712	0.029925	0.098759	0.229106	0.107824	0.031298
0.033115	0.116567	0.235409	0.267570	0.206491	0.029258	0.096670	0.231539	0.110848	0.032696
0.032802	0.118746	0.237267	0.269304	0.201112	0.028600	0.094687	0.234406	0.113857	0.034200
0.032475	0.120983	0.239032	0.270917	0.195606	0.027953	0.092806	0.237725	0.116838	0.035817
0.032132	0.123276	0.240702	0.272413	0.190003	0.027319	0.091023	0.241512	0.119782	0.037558
0.031776	0.125622	0.242274	0.273799	0.184330	0.026698	0.089334	0.245781	0.122675	0.039430
0.031407	0.128017	0.243746	0.275080	0.178613	0.026093	0.087733	0.250543	0.125507	0.041444
0.031025	0.130457	0.245113	0.276265	0.172876	0.025503	0.086216	0.255807	0.128269	0.043607
0.030630	0.132938	0.246374	0.277364	0.167141	0.024929	0.084780	0.261579	0.130954	0.045926
0.030224	0.135456	0.247532	0.278385	0.161430	0.024374	0.083420	0.267859	0.133560	0.048410
0.029806	0.138004	0.248591	0.279339	0.155759	0.023835	0.082133	0.274647	0.136088	0.051064
0.029377	0.140577	0.249558	0.280230	0.150145	0.023315	0.080913	0.281935	0.138540	0.053894
0.028939	0.143170	0.250441	0.281064	0.144602	0.022814	0.079758	0.289716	0.140920	0.056906
0.028491	0.145780	0.251250	0.281845	0.139141	0.022331	0.078661	0.297976	0.143233	0.060105
0.028036	0.148404	0.251991	0.282576	0.133773	0.021868	0.077621	0.306698	0.145486	0.063496
0.027573	0.151038	0.252669	0.283259	0.128506	0.021426	0.076632	0.315862	0.147686	0.067082
0.027105	0.153679	0.253289	0.283896	0.123348	0.021006	0.075692	0.325441	0.149842	0.070868
0.026632	0.156322	0.253856	0.284488	0.118305	0.020608	0.074802	0.335409	0.151963	0.074857
0.026158	0.158961	0.254375	0.285035	0.113381	0.020235	0.073964	0.345734	0.154062	0.079053
0.025684	0.161590	0.254855	0.285544	0.108582	0.019887	0.073180	0.356383	0.156149	0.083459
0.025211	0.164205	0.255305	0.286022	0.103911	0.019564	0.072455	0.367322	0.158238	0.088079
0.024742	0.166804	0.255732	0.286478	0.099370	0.019268	0.071793	0.378514	0.160341	0.092919
0.024279	0.169386	0.256144	0.286923	0.094962	0.018998	0.071197	0.389917	0.162473	0.097981
0.023821	0.171953	0.256546	0.287362	0.090686	0.018755	0.070670	0.401486	0.164644	0.103271
0.023370	0.174509	0.256941	0.287801	0.086545	0.018540	0.070215	0.413171	0.166865	0.108794
0.022927	0.177057	0.257332	0.288242	0.082539	0.018352	0.069831	0.424917	0.169146	0.114553
0.022493	0.179603	0.257722	0.288689	0.078668	0.018193	0.069520	0.436668	0.171491	0.120549
0.022067	0.182150	0.258116	0.289147	0.074932	0.018063	0.069280	0.448367	0.173904	0.126784
0.021650	0.184700	0.258521	0.289620	0.071329	0.017963	0.069111	0.459955	0.176389	0.133256
0.021242	0.187259	0.258945	0.290117	0.067858	0.017892	0.069010	0.471377	0.178943	0.139963
0.020842	0.189831	0.259396	0.290645	0.064516	0.017851	0.068976	0.482576	0.181565	0.146902
0.020449	0.192425	0.259880	0.291209	0.061301	0.017840	0.069004	0.493495	0.184252	0.154066
0.020065	0.195045	0.260403	0.291812	0.058211	0.017859	0.069092	0.504077	0.186997	0.161451
0.019689	0.197695	0.260971	0.292456	0.055245	0.017909	0.069239	0.514261	0.189794	0.169048
0.019321	0.200378	0.261595	0.293142	0.052401	0.017989	0.069441	0.523987	0.192635	0.176849
0.018962	0.203095	0.262287	0.293875	0.049677	0.018099	0.069697	0.533198	0.195512	0.184843
0.018611	0.205847	0.263063	0.294661	0.047074	0.018241	0.070006	0.541852	0.198414	0.193016
0.018270	0.208632	0.263941	0.295512	0.044590	0.018414	0.070368	0.549927	0.201332	0.201355
0.017938	0.211449	0.264940	0.296436	0.042222	0.018619	0.070783	0.557414	0.204256	0.209847
0.017615	0.214296	0.266077	0.297446	0.039969	0.018855	0.071252	0.564318	0.207178	0.218482
0.017302	0.217168	0.267370	0.298550	0.037828	0.019121	0.071774	0.570644	0.210088	0.227248
0.016999	0.220060	0.268833	0.299762	0.035796	0.019419	0.072349	0.576394	0.212976	0.236136
0.016705	0.222971	0.270484	0.301096	0.033870	0.019746	0.072975	0.581567	0.215828	0.245132
0.016422	0.225900	0.272340	0.302577	0.032048	0.020103	0.073649	0.586159	0.218634	0.254223
0.016148	0.228850	0.274420	0.304236	0.030326	0.020488	0.074370	0.590169	0.221388	0.263392
0.015884	0.231825	0.276745	0.306108	0.028702	0.020901	0.075134	0.593597	0.224086	0.272620
0.015628	0.234831	0.279333	0.308225	0.027172	0.021340	0.075938	0.596445	0.226732	0.281888
0.015381	0.237873	0.282202	0.310622	0.025734	0.021803	0.076777	0.598716	0.229325	0.291174
0.015143	0.240955	0.285364	0.313324	0.024384	0.022290	0.077650	0.600411	0.231870	0.300455
0.014913	0.244078	0.288830	0.316356	0.023119	0.022799	0.078553	0.601528	0.234369	0.309704
0.014691	0.247241	0.292609	0.319740	0.021937	0.023328	0.079487	0.602069	0.236825	0.318893
0.014479	0.250443	0.296707	0.323494	0.020834	0.023877	0.080452	0.602037	0.239237	0.327989
0.014277	0.253679	0.301127	0.327634	0.019808	0.024444	0.081452	0.601446	0.241606	0.336962
0.014085	0.256941	0.305868	0.332174	0.018857	0.025027	0.082487	0.600319	0.243931	0.345778
0.013905	0.260221	0.310927	0.337125	0.017979	0.025625	0.083559	0.598687	0.246214	0.354401
0.013735	0.263505	0.316300	0.342497	0.017172	0.026237	0.084669	0.596583	0.248461	0.362799
0.013578	0.266778	0.321983	0.348294	0.016435	0.026860	0.085818	0.594038	0.250682	0.370944
0.013433	0.270025	0.327974	0.354524	0.015765	0.027494	0.087005	0.591082	0.252897	0.378818
0.013301	0.273231	0.334269	0.361191	0.015161	0.028137	0.088230	0.587741	0.255128	0.386408
0.013181	0.276383	0.340863	0.368302	0.014623	0.028788	0.089494	0.584045	0.257403	0.393709
0.013075	0.279473	0.347746	0.375860	0.014148	0.029445	0.090796	0.580029	0.259747	0.400715
0.012983	0.282497	0.354906	0.383868	0.013735	0.030106	0.092134	0.575729	0.262183	0.407424
0.012904	0.285460	0.362327	0.392329	0.013383	0.030768	0.093506	0.571182	0.264732	0.413830
0.012839	0.288370	0.369986	0.401247	0.013091	0.031429	0.094907	0.566420	0.267413	0.419928
0.012788	0.291241	0.377864	0.410629	0.012855	0.032086	0.096333	0.561470	0.270242	0.425713
0.012750	0.294089	0.385941	0.420480	0.012676	0.032738	0.097779	0.556355	0.273237	0.431180
0.012727	0.296928	0.394200	0.430803	0.012550	0.033380	0.099241	0.551086	0.276412	0.436325
0.012718	0.299774	0.402630	0.441597	0.012476	0.034009	0.100711	0.545673	0.279785	0.441142
0.012723	0.302638	0.411223	0.452861	0.012452	0.034622	0.102187	0.540122	0.283371	0.445624
0.012742	0.305529	0.419977	0.464590	0.012478	0.035215	0.103663	0.534442	0.287182	0.449765
0.012774	0.308457	0.428891	0.476777	0.012551	0.035784	0.105137	0.528646	0.291232	0.453562
0.012821	0.311429	0.437964	0.489411	0.012670	0.036324	0.106610	0.522757	0.295526	0.457011
0.012881	0.314456	0.447192	0.502477	0.012834	0.036831	0.108079	0.516803	0.300069	0.460111
0.012954	0.317549	0.456567	0.515954	0.013041	0.037302	0.109546	0.510817	0.304863	0.462861
0.013041	0.320720	0.466079	0.529820	0.013290	0.037734	0.111008	0.504830	0.309902	0.465255
0.013143	0.323980	0.475717	0.544049	0.013581	0.038124	0.112462	0.498869	0.315181	0.467284
0.013259	0.327340	0.485473	0.558618	0.013911	0.038471	0.113904	0.492960	0.320694	0.468937
0.013390	0.330807	0.495343	0.573500	0.014279	0.038772	0.115329	0.487126	0.326435	0.470194
0.013537	0.334389	0.505322	0.588667	0.014685	0.039025	0.116731	0.481389	0.332403	0.471038
0.013701	0.338092	0.515411	0.604088	0.015126	0.039231	0.118104	0.475779	0.338595	0.471449
0.013883	0.341918	0.525607	0.619730	0.015602	0.039386	0.119444	0.470322	0.345008	0.471411
0.014082	0.345872	0.535909	0.635558	0.016112	0.039491	0.120744	0.465048	0.351635	0.470915
0.014299	0.349955	0.546310	0.651534	0.016655	0.039543	0.122002	0.459979	0.358467	0.469960
0.014535	0.354170	0.556804	0.667614	0.017231	0.039542	0.123209	0.455132	0.365489	0.468552
0.014789	0.358520	0.567380	0.683751	0.017839	0.039489	0.124359	0.450523	0.372686	0.466697
0.015062	0.363006	0.578025	0.699888	0.018480	0.039386	0.125444	0.446160	0.380033	0.464399
0.015352	0.367628	0.588722	0.715971	0.019154	0.039236	0.126455	0.442052	0.387504	0.461665
0.015661	0.372380	0.599451	0.731940	0.019862	0.039043	0.127383	0.438202	0.395066	0.458507
0.015988	0.377254	0.610183	0.747737	0.020604	0.038811	0.128222	0.434609	0.402684	0.454946
0.016332	0.382243	0.620887	0.763294	0.021380	0.038545	0.128967	0.431269	0.410320	0.451018
0.016692	0.387338	0.631522	0.778539	0.022191	0.038249	0.129610	0.428177	0.417940	0.446766
0.017069	0.392532	0.642038	0.793393	0.023036	0.037926	0.130145	0.425328	0.425508	0.442240
0.017460	0.397821	0.652378	0.807771	0.023917	0.037580	0.130565	0.422715	0.432990	0.437489
0.017865	0.403196	0.662474	0.821586	0.024832	0.037215	0.130860	0.420331	0.440349	0.432558
0.018283	0.408654	0.672249	0.834744	0.025782	0.036835	0.131024	0.418170	0.447542	0.427490
0.018713	0.414187	0.681621	0.847148	0.026767	0.036442	0.131049	0.416226	0.454525	0.422331
0.019151	0.419786	0.690500	0.858700	0.027787	0.036041	0.130932	0.414500	0.461253	0.417128
0.019596	0.425436	0.698790	0.869309	0.028840	0.035634	0.130674	0.413002	0.467681	0.411938
0.020046	0.431118	0.706394	0.878903	0.029926	0.035224	0.130275	0.411745	0.473766	0.406819
0.020499	0.436810	0.713219	0.887424	0.031045	0.034815	0.129742	0.410745	0.479461	0.401834
0.020952	0.442482	0.719177	0.894833	0.032195	0.034411	0.129079	0.410015	0.484719	0.397041
0.021401	0.448104	0.724197	0.901110	0.033375	0.034014	0.128292	0.409562	0.489497	0.392496
0.021845	0.453640	0.728224	0.906245	0.034583	0.033628	0.127386	0.409390	0.493748	0.388249
0.022280	0.459050	0.731220	0.910235	0.035819	0.033254	0.126366	0.409494	0.497424	0.384347
0.022703	0.464289	0.733161	0.913081	0.037079	0.032896	0.125237	0.409864	0.500474	0.380829
0.023110	0.469309	0.734038	0.914792	0.038362	0.032555	0.124003	0.410486	0.502846	0.377732
0.023497	0.474058	0.733843	0.915397	0.039666	0.032233	0.122671	0.411338	0.504490	0.375086
0.023862	0.478479	0.732572	0.914937	0.040987	0.031929	0.121247	0.412394	0.505363	0.372919
0.024203	0.482514	0.730215	0.913468	0.042324	0.031645	0.119737	0.413622	0.505442	0.371249
0.024516	0.486108	0.726774	0.911056	0.043673	0.031380	0.118148	0.414988	0.504719	0.370095
0.024801	0.489211	0.722261	0.907763	0.045031	0.031134	0.116489	0.416453	0.503201	0.369467
0.025056	0.491782	0.716715	0.903651	0.046395	0.030906	0.114766	0.417981	0.500903	0.369372
0.025281	0.493791	0.710197	0.898770	0.047761	0.030696	0.112989	0.419541	0.497844	0.369809
0.025474	0.495218	0.702792	0.893166	0.049126	0.030500	0.111163	0.421105	0.494052	0.370777
0.025634	0.496048	0.694600	0.886880	0.050485	0.030318	0.109294	0.422650	0.489562	0.372263
0.025760	0.496266	0.685730	0.879945	0.051834	0.030147	0.107387	0.424151	0.484425	0.374253
0.025853	0.495860	0.676288	0.872388	0.053168	0.029986	0.105449	0.425582	0.478697	0.376726
0.025913	0.494818	0.666375	0.864233	0.054483	0.029832	0.103484	0.426913	0.472437	0.379656
0.025941	0.493141	0.656083	0.855502	0.055775	0.029682	0.101498	0.428107	0.465706	0.383010
0.025938	0.490841	0.645496	0.846224	0.057039	0.029536	0.099498	0.429124	0.458561	0.386752
0.025908	0.487944	0.634692	0.836435	0.058271	0.029389	0.097488	0.429918	0.451055	0.390840
0.025851	0.484491	0.623741	0.826168	0.059469	0.029241	0.095475	0.430443	0.443234	0.395228
0.025769	0.480531	0.612705	0.815461	0.060629	0.029089	0.093465	0.430650	0.435138	0.399865
0.025665	0.476118	0.601639	0.804343	0.061747	0.028930	0.091464	0.430490	0.426806	0.404693
0.025538	0.471309	0.590590	0.792839	0.062818	0.028763	0.089479	0.429919	0.418269	0.409654
0.025391	0.466153	0.579601	0.780966	0.063837	0.028586	0.087514	0.428899	0.409553	0.414682
0.025224	0.460698	0.568707	0.768730	0.064800	0.028398	0.085576	0.427402	0.400683	0.419709
0.025039	0.454982	0.557942	0.756132	0.065701	0.028198	0.083671	0.425402	0.391681	0.424666
0.024836	0.449039	0.547332	0.743171	0.066535	0.027984	0.081801	0.422877	0.382570	0.429486
0.024615	0.442896	0.536896	0.729853	0.067298	0.027756	0.079972	0.419813	0.373372	0.434111
0.024377	0.436576	0.526646	0.716195	0.067987	0.027510	0.078184	0.416211	0.364106	0.438488
0.024122	0.430097	0.516588	0.702237	0.068596	0.027249	0.076440	0.412087	0.354794	0.442565
0.023850	0.423474	0.506725	0.688033	0.069123	0.026971	0.074740	0.407474	0.345450	0.446298
0.023563	0.416720	0.497056	0.673649	0.069565	0.026678	0.073084	0.402414	0.336092	0.449655
0.023260	0.409851	0.487579	0.659156	0.069921	0.026373	0.071471	0.396956	0.326733	0.452614
0.022943	0.402882	0.478294	0.644620	0.070190	0.026055	0.069902	0.391149	0.317385	0.455163
0.022614	0.395832	0.469202	0.630105	0.070373	0.025728	0.068375	0.385043	0.308059	0.457290
0.022272	0.388724	0.460305	0.615672	0.070471	0.025393	0.066893	0.378681	0.298763	0.458985
0.021920	0.381583	0.451610	0.601384	0.070484	0.025051	0.065457	0.372108	0.289508	0.460234
0.021559	0.374437	0.443126	0.587299	0.070413	0.024705	0.064070	0.365367	0.280307	0.461025
0.021189	0.367314	0.434865	0.573475	0.070256	0.024356	0.062737	0.358500	0.271172	0.461351
0.020812	0.360240	0.426845	0.559962	0.070015	0.024005	0.061462	0.351551	0.262120	0.461207
0.020430	0.353241	0.419086	0.546804	0.069687	0.023655	0.060249	0.344560	0.253170	0.460595
0.020045	0.346337	0.411610	0.534035	0.069275	0.023306	0.059102	0.337564	0.244347	0.459522
0.019657	0.339545	0.404439	0.521683	0.068778	0.022960	0.058026	0.330599	0.235680	0.458004
0.019268	0.332882	0.397593	0.509773	0.068198	0.022617	0.057023	0.323699	0.227201	0.456060
0.018879	0.326362	0.391086	0.498326	0.067540	0.022281	0.056098	0.316893	0.218946	0.453709
0.018492	0.320000	0.384930	0.487361	0.066806	0.021953	0.055253	0.310211	0.210954	0.450970
0.018106	0.313810	0.379132	0.476898	0.066003	0.021636	0.054491	0.303678	0.203263	0.447867
0.017724	0.307804	0.373696	0.466947	0.065137	0.021332	0.053813	0.297316	0.195909	0.444432
0.017346	0.301991	0.368623	0.457515	0.064215	0.021045	0.053219	0.291146	0.188925	0.440703
0.016973	0.296379	0.363911	0.448600	0.063246	0.020777	0.052710	0.285184	0.182344	0.436730
0.016606	0.290978	0.359558	0.440197	0.062235	0.020529	0.052284	0.279447	0.176196	0.432568
0.016247	0.285794	0.355556	0.432294	0.061191	0.020303	0.051942	0.273950	0.170506	0.428271
0.015896	0.280837	0.351897	0.424882	0.060120	0.020102	0.051679	0.268709	0.165301	0.423893
0.015555	0.276112	0.348572	0.417947	0.059027	0.019927	0.051495	0.263741	0.160602	0.419483
0.015224	0.271623	0.345565	0.411481	0.057917	0.019779	0.051387	0.259064	0.156433	0.415089
0.014906	0.267379	0.342864	0.405474	0.056797	0.019659	0.051352	0.254695	0.152813	0.410759
0.014601	0.263388	0.340449	0.399918	0.055672	0.019569	0.051388	0.250649	0.149763	0.406540
0.014311	0.259662	0.338300	0.394799	0.054547	0.019509	0.051492	0.246941	0.147302	0.402481
0.014037	0.256214	0.336392	0.390102	0.053426	0.019481	0.051661	0.243578	0.145448	0.398632
0.013781	0.253055	0.334698	0.385808	0.052315	0.019486	0.051892	0.240569	0.144217	0.395036
0.013542	0.250195	0.333186	0.381899	0.051218	0.019524	0.052181	0.237918	0.143623	0.391733
0.013322	0.247641	0.331821	0.378354	0.050139	0.019598	0.052525	0.235627	0.143679	0.388759
0.013121	0.245401	0.330572	0.375154	0.049083	0.019707	0.052922	0.233698	0.144398	0.386146
0.012939	0.243480	0.329408	0.372282	0.048053	0.019854	0.053370	0.232127	0.145789	0.383919
0.012777	0.241882	0.328307	0.369719	0.047055	0.020039	0.053867	0.230910	0.147860	0.382100
0.012636	0.240607	0.327250	0.367444	0.046092	0.020265	0.054412	0.230037	0.150617	0.380707
0.012514	0.239657	0.326226	0.365440	0.045170	0.020534	0.055007	0.229497	0.154065	0.379755
0.012412	0.239030	0.325225	0.363687	0.044291	0.020846	0.055651	0.229276	0.158207	0.379257
0.012331	0.238726	0.324242	0.362161	0.043460	0.021205	0.056346	0.229358	0.163040	0.379223
0.012269	0.238741	0.323266	0.360840	0.042681	0.021611	0.057093	0.229727	0.168565	0.379656
0.012228	0.239073	0.322287	0.359701	0.041955	0.022065	0.057891	0.230368	0.174775	0.380559
0.012206	0.239716	0.321287	0.358720	0.041286	0.022569	0.058743	0.231267	0.181664	0.381929
0.012205	0.240664	0.320246	0.357875	0.040675	0.023124	0.059647	0.232410	0.189223	0.383761
0.012223	0.241911	0.319138	0.357147	0.040123	0.023728	0.060604	0.233785	0.197441	0.386049
0.012260	0.243448	0.317933	0.356512	0.039632	0.024384	0.061611	0.235378	0.206303	0.388781
0.012316	0.245261	0.316601	0.355945	0.039201	0.025090	0.062667	0.237174	0.215796	0.391946
0.012390	0.247339	0.315110	0.355418	0.038830	0.025848	0.063771	0.239157	0.225902	0.395529
0.012482	0.249663	0.313434	0.354897	0.038518	0.026656	0.064923	0.241314	0.236601	0.399524
0.012591	0.252214	0.311551	0.354347	0.038263	0.027516	0.066121	0.243628	0.247873	0.403930
0.012717	0.254972	0.309444	0.353725	0.038063	0.028427	0.067367	0.246089	0.259692	0.408753
0.012859	0.257913	0.307108	0.352992	0.037916	0.029388	0.068665	0.248689	0.272032	0.414005
0.013017	0.261009	0.304545	0.352108	0.037819	0.030401	0.070018	0.251419	0.284862	0.419698
0.013191	0.264231	0.301763	0.351041	0.037769	0.031467	0.071432	0.254269	0.298147	0.425840
0.013380	0.267546	0.298776	0.349767	0.037763	0.032585	0.072913	0.257227	0.311852	0.432432
0.013583	0.270919	0.295599	0.348271	0.037799	0.033758	0.074470	0.260280	0.325937	0.439474
0.013799	0.274312	0.292246	0.346543	0.037874	0.034986	0.076109	0.263411	0.340359	0.446955
0.014027	0.277690	0.288730	0.344580	0.037984	0.036270	0.077836	0.266608	0.355073	0.454863
0.014267	0.281021	0.285066	0.342381	0.038127	0.037610	0.079657	0.269857	0.370035	0.463175
0.014517	0.284272	0.281266	0.339944	0.038298	0.039006	0.081575	0.273150	0.385197	0.471868
0.014776	0.287417	0.277347	0.337264	0.038495	0.040457	0.083595	0.276477	0.400511	0.480912
0.015043	0.290431	0.273322	0.334331	0.038712	0.041963	0.085717	0.279831	0.415922	0.490280
0.015315	0.293296	0.269203	0.331137	0.038946	0.043522	0.087943	0.283201	0.431374	0.499942
0.015593	0.295996	0.264998	0.327666	0.039194	0.045133	0.090271	0.286581	0.446806	0.509873
0.015873	0.298516	0.260716	0.323906	0.039453	0.046794	0.092701	0.289969	0.462152	0.520050
0.016153	0.300844	0.256361	0.319841	0.039720	0.048503	0.095228	0.293359	0.477345	0.530454
0.016433	0.302964	0.251938	0.315456	0.039992	0.050260	0.097849	0.296751	0.492314	0.541067
0.016711	0.304861	0.247450	0.310746	0.040268	0.052062	0.100558	0.300139	0.506987	0.551868
0.016983	0.306517	0.242896	0.305712	0.040544	0.053909	0.103349	0.303525	0.521289	0.562833
0.017249	0.307914	0.238278	0.300366	0.040819	0.055799	0.106215	0.306910	0.535149	0.573931
0.017506	0.309030	0.233594	0.294726	0.041091	0.057730	0.109146	0.310301	0.548496	0.585126
0.017752	0.309843	0.228849	0.288812	0.041357	0.059699	0.112133	0.313705	0.561261	0.596373
0.017986	0.310328	0.224049	0.282642	0.041617	0.061701	0.115167	0.317126	0.573376	0.607625
0.018204	0.310457	0.219204	0.276234	0.041870	0.063734	0.118237	0.320563	0.584770	0.618828
0.018406	0.310207	0.214324	0.269606	0.042118	0.065793	0.121331	0.324012	0.595368	0.629922
0.018590	0.309562	0.209419	0.262773	0.042361	0.067872	0.124441	0.327465	0.605107	0.640843
0.018756	0.308511	0.204498	0.255752	0.042601	0.069966	0.127557	0.330909	0.613934	0.651514
0.018903	0.307057	0.199566	0.248563	0.042840	0.072070	0.130673	0.334329	0.621810	0.661859
0.019030	0.305207	0.194630	0.241233	0.043078	0.074178	0.133781	0.337705	0.628702	0.671792
0.019137	0.302978	0.189694	0.233793	0.043316	0.076284	0.136874	0.341017	0.634588	0.681224
0.019224	0.300391	0.184761	0.226277	0.043556	0.078379	0.139946	0.344243	0.639465	0.690069
0.019290	0.297472	0.179835	0.218719	0.043797	0.080458	0.142988	0.347361	0.643351	0.698249
0.019337	0.294246	0.174916	0.211150	0.044039	0.082515	0.145990	0.350348	0.646279	0.705705
0.019363	0.290740	0.170010	0.203599	0.044283	0.084543	0.148940	0.353177	0.648295	0.712391
0.019370	0.286977	0.165123	0.196091	0.044526	0.086538	0.151827	0.355822	0.649449	0.718269
0.019360	0.282978	0.160260	0.188651	0.044769	0.088496	0.154638	0.358254	0.649790	0.723304
0.019333	0.278761	0.155428	0.181298	0.045008	0.090415	0.157360	0.360441	0.649368	0.727465
0.019292	0.274341	0.150632	0.174049	0.045242	0.092290	0.159978	0.362348	0.648229	0.730735
0.019238	0.269736	0.145874	0.166921	0.045468	0.094120	0.162477	0.363938	0.646415	0.733110
0.019174	0.264965	0.141158	0.159927	0.045682	0.095899	0.164844	0.365177	0.643973	0.734597
0.019101	0.260047	0.136484	0.153077	0.045881	0.097624	0.167069	0.366038	0.640956	0.735202
0.019022	0.255003	0.131854	0.146381	0.046060	0.099290	0.169145	0.366506	0.637423	0.734929
0.018938	0.249854	0.127269	0.139844	0.046215	0.100890	0.171073	0.366573	0.633438	0.733778
0.018851	0.244621	0.122732	0.133472	0.046341	0.102421	0.172857	0.366231	0.629069	0.731744
0.018763	0.239323	0.118246	0.127269	0.046436	0.103876	0.174503	0.365476	0.624388	0.728823
0.018676	0.233980	0.113815	0.121239	0.046496	0.105253	0.176017	0.364305	0.619460	0.725012
0.018589	0.228611	0.109445	0.115385	0.046522	0.106545	0.177406	0.362721	0.614352	0.720317
0.018504	0.223234	0.105142	0.109710	0.046513	0.107748	0.178678	0.360734	0.609122	0.714748
0.018421	0.217867	0.100911	0.104218	0.046470	0.108860	0.179841	0.358360	0.603825	0.708319
0.018342	0.212527	0.096760	0.098913	0.046392	0.109879	0.180903	0.355619	0.598509	0.701040
0.018266	0.207229	0.092694	0.093798	0.046280	0.110809	0.181869	0.352539	0.593215	0.692918
0.018195	0.201989	0.088720	0.088875	0.046136	0.111656	0.182744	0.349146	0.587974	0.683954
0.018128	0.196823	0.084842	0.084143	0.045957	0.112430	0.183533	0.345476	0.582816	0.674156
0.018066	0.191744	0.081065	0.079604	0.045745	0.113142	0.184236	0.341563	0.577762	0.663543
0.018011	0.186764	0.077394	0.075255	0.045498	0.113801	0.184855	0.337447	0.572827	0.652152
0.017961	0.181895	0.073833	0.071095	0.045217	0.114416	0.185389	0.333163	0.568024	0.640042
0.017918	0.177145	0.070382	0.067121	0.044902	0.114998	0.185836	0.328744	0.563360	0.627280
0.017882	0.172523	0.067043	0.063328	0.044553	0.115554	0.186198	0.324221	0.558840	0.613940
0.017853	0.168034	0.063816	0.059715	0.044170	0.116093	0.186483	0.319624	0.554467	0.600093
0.017831	0.163682	0.060701	0.056274	0.043754	0.116621	0.186699	0.314982	0.550243	0.585806
0.017816	0.159471	0.057697	0.053003	0.043306	0.117146	0.186855	0.310328	0.546168	0.571138
0.017807	0.155401	0.054802	0.049895	0.042829	0.117673	0.186962	0.305698	0.542248	0.556147
0.017805	0.151470	0.052014	0.046945	0.042324	0.118208	0.187028	0.301128	0.538487	0.540892
0.017807	0.147675	0.049332	0.044150	0.041796	0.118756	0.187060	0.296655	0.534887	0.525431
0.017814	0.144013	0.046753	0.041504	0.041246	0.119319	0.187063	0.292313	0.531449	0.509822
0.017823	0.140480	0.044275	0.039003	0.040679	0.119902	0.187041	0.288134	0.528170	0.494124
0.017832	0.137071	0.041898	0.036643	0.040097	0.120504	0.186996	0.284143	0.525050	0.478393
0.017842	0.133782	0.039618	0.034420	0.039503	0.121128	0.186932	0.280365	0.522086	0.462686
0.017849	0.130605	0.037434	0.032329	0.038899	0.121773	0.186847	0.276819	0.519280	0.447056
0.017853	0.127536	0.035345	0.030366	0.038286	0.122439	0.186743	0.273523	0.516638	0.431552
0.017852	0.124567	0.033348	0.028526	0.037667	0.123124	0.186619	0.270496	0.514168	0.416224
0.017844	0.121693	0.031443	0.026802	0.037043	0.123826	0.186476	0.267750	0.511879	0.401112
0.017829	0.118907	0.029626	0.025192	0.036416	0.124541	0.186313	0.265298	0.509782	0.386258
0.017805	0.116204	0.027898	0.023688	0.035788	0.125265	0.186128	0.263147	0.507884	0.371697
0.017771	0.113581	0.026257	0.022288	0.035160	0.125993	0.185917	0.261302	0.506197	0.357459
0.017727	0.111037	0.024701	0.020985	0.034534	0.126719	0.185676	0.259765	0.504734	0.343571
0.017673	0.108570	0.023228	0.019776	0.033910	0.127436	0.185402	0.258532	0.503515	0.330055
0.017611	0.106180	0.021839	0.018657	0.033290	0.128136	0.185089	0.257597	0.502564	0.316931
0.017539	0.103869	0.020530	0.017622	0.032674	0.128811	0.184733	0.256952	0.501907	0.304213
0.017461	0.101637	0.019301	0.016668	0.032064	0.129450	0.184329	0.256587	0.501567	0.291914
0.017375	0.099483	0.018148	0.015789	0.031459	0.130044	0.183872	0.256492	0.501561	0.280041
0.017285	0.097406	0.017071	0.014982	0.030860	0.130579	0.183354	0.256655	0.501900	0.268599
0.017191	0.095403	0.016066	0.014243	0.030267	0.131043	0.182765	0.257063	0.502589	0.257589
0.017093	0.093470	0.015131	0.013566	0.029680	0.131421	0.182098	0.257702	0.503628	0.247009
0.016995	0.091602	0.014262	0.012949	0.029098	0.131700	0.181341	0.258552	0.505014	0.236853
0.016895	0.089793	0.013456	0.012387	0.028521	0.131865	0.180487	0.259591	0.506740	0.227115
0.016796	0.088038	0.012710	0.011880	0.027950	0.131906	0.179531	0.260794	0.508800	0.217785
0.016698	0.086329	0.012020	0.011423	0.027383	0.131814	0.178470	0.262131	0.511181	0.208851
0.016601	0.084662	0.011382	0.011013	0.026823	0.131588	0.177303	0.263570	0.513867	0.200298
0.016506	0.083029	0.010794	0.010650	0.026269	0.131224	0.176031	0.265076	0.516835	0.192107
0.016415	0.081427	0.010252	0.010328	0.025721	0.130727	0.174657	0.266612	0.520057	0.184260
0.016327	0.079853	0.009753	0.010047	0.025181	0.130099	0.173185	0.268141	0.523497	0.176737
0.016245	0.078302	0.009293	0.009803	0.024647	0.129346	0.171618	0.269626	0.527116	0.169516
0.016169	0.076776	0.008870	0.009593	0.024119	0.128474	0.169959	0.271029	0.530873	0.162578
0.016102	0.075272	0.008480	0.009415	0.023598	0.127488	0.168212	0.272311	0.534726	0.155906
0.016047	0.073792	0.008121	0.009267	0.023083	0.126392	0.166378	0.273431	0.538632	0.149484
0.016006	0.072337	0.007791	0.009148	0.022575	0.125190	0.164456	0.274343	0.542545	0.143301
0.015984	0.070907	0.007487	0.009054	0.022072	0.123885	0.162445	0.275005	0.546413	0.137346
0.015984	0.069505	0.007208	0.008985	0.021575	0.122478	0.160341	0.275375	0.550185	0.131612
0.016011	0.068131	0.006952	0.008939	0.021083	0.120973	0.158141	0.275424	0.553809	0.126094
0.016069	0.066786	0.006718	0.008913	0.020597	0.119371	0.155846	0.275128	0.557241	0.120784
0.016162	0.065470	0.006503	0.008907	0.020115	0.117676	0.153457	0.274477	0.560442	0.115681
0.016295	0.064181	0.006307	0.008917	0.019638	0.115893	0.150980	0.273463	0.563383	0.110783
0.016473	0.062919	0.006129	0.008943	0.019167	0.114030	0.148426	0.272085	0.566040	0.106089
0.016698	0.061681	0.005966	0.008982	0.018703	0.112097	0.145808	0.270339	0.568395	0.101599
0.016976	0.060464	0.005820	0.009032	0.018245	0.110104	0.143140	0.268228	0.570425	0.097310
0.017311	0.059268	0.005687	0.009091	0.017794	0.108064	0.140436	0.265762	0.572110	0.093218
0.017706	0.058090	0.005566	0.009157	0.017351	0.105989	0.137708	0.262959	0.573439	0.089317
0.018166	0.056926	0.005457	0.009228	0.016917	0.103888	0.134970	0.259846	0.574409	0.085603
0.018694	0.055776	0.005358	0.009302	0.016491	0.101773	0.132231	0.256453	0.575029	0.082067
0.019294	0.054637	0.005268	0.009379	0.016074	0.099653	0.129501	0.252815	0.575309	0.078702
0.019969	0.053508	0.005184	0.009456	0.015667	0.097535	0.126788	0.248962	0.575267	0.075501
0.020723	0.052386	0.005106	0.009534	0.015269	0.095428	0.124101	0.244926	0.574921	0.072461
0.021559	0.051273	0.005033	0.009612	0.014881	0.093339	0.121445	0.240733	0.574287	0.069577
0.022480	0.050169	0.004963	0.009688	0.014502	0.091274	0.118826	0.236407	0.573381	0.066846
0.023489	0.049076	0.004896	0.009763	0.014133	0.089241	0.116250	0.231971	0.572211	0.064266
