/forceset/addlong_r/activation	/forceset/recfem_r/activation	/forceset/vaslat_r/activation	/forceset/vasmed_r/activation	/forceset/tibant_r/activation	/forceset/bflh_r/activation	/forceset/semiten_r/activation	/forceset/gaslat_r/activation	/forceset/gasmed_r/activation	/forceset/soleus_r/activation
0.338813	0.369682	0.001016	-0.002476	-0.049602	0.006445	0.002489	0.005451	0.002654	0.016958
0.348233	0.402389	0.001607	-0.000912	-0.012122	0.007715	0.004163	0.006357	0.003270	0.019325
0.357744	0.435128	0.002195	0.000632	0.024895	0.008998	0.005851	0.007266	0.003887	0.021668
0.367290	0.467784	0.002778	0.002150	0.061266	0.010291	0.007547	0.008177	0.004502	0.023977
0.376821	0.500243	0.003353	0.003638	0.096825	0.011593	0.009249	0.009088	0.005114	0.026245
0.386289	0.532394	0.003921	0.005090	0.131433	0.012901	0.010952	0.009995	0.005720	0.028461
0.395649	0.564126	0.004479	0.006502	0.164979	0.014215	0.012653	0.010897	0.006318	0.030616
0.404852	0.595330	0.005027	0.007869	0.197379	0.015533	0.014350	0.011791	0.006908	0.032701
0.413849	0.625896	0.005563	0.009189	0.228566	0.016857	0.016039	0.012675	0.007489	0.034706
0.422585	0.655712	0.006088	0.010459	0.258479	0.018185	0.017718	0.013546	0.008057	0.036622
0.431003	0.684661	0.006601	0.011677	0.287068	0.019520	0.019384	0.014404	0.008614	0.038443
0.439043	0.712620	0.007101	0.012841	0.314294	0.020862	0.021035	0.015245	0.009157	0.040160
0.446642	0.739467	0.007590	0.013951	0.340129	0.022211	0.022667	0.016069	0.009686	0.041769
0.453734	0.765090	0.008066	0.015006	0.364555	0.023569	0.024277	0.016872	0.010199	0.043267
0.460257	0.789394	0.008530	0.016004	0.387558	0.024936	0.025862	0.017653	0.010697	0.044652
0.466154	0.812307	0.008981	0.016944	0.409134	0.026313	0.027418	0.018411	0.011178	0.045923
0.471377	0.833779	0.009418	0.017827	0.429287	0.027701	0.028942	0.019142	0.011642	0.047082
0.475882	0.853782	0.009843	0.018652	0.448041	0.029098	0.030432	0.019846	0.012089	0.048128
0.479634	0.872302	0.010254	0.019419	0.465435	0.030506	0.031886	0.020520	0.012518	0.049063
0.482604	0.889337	0.010652	0.020129	0.481517	0.031922	0.033305	0.021164	0.012929	0.049887
0.484764	0.904889	0.011036	0.020784	0.496340	0.033348	0.034688	0.021777	0.013324	0.050601
0.486086	0.918964	0.011406	0.021387	0.509966	0.034780	0.036037	0.022358	0.013700	0.051204
0.486543	0.931576	0.011763	0.021939	0.522470	0.036218	0.037355	0.022907	0.014060	0.051697
0.486102	0.942759	0.012105	0.022443	0.533937	0.037661	0.038642	0.023421	0.014401	0.052084
0.484734	0.952577	0.012434	0.022903	0.544461	0.039107	0.039902	0.023901	0.014724	0.052365
0.482419	0.961119	0.012747	0.023320	0.554137	0.040555	0.041137	0.024344	0.015028	0.052545
0.479148	0.968492	0.013047	0.023698	0.563055	0.042004	0.042347	0.024749	0.015312	0.052625
0.474929	0.974810	0.013332	0.024039	0.571299	0.043454	0.043537	0.025115	0.015576	0.052611
0.469791	0.980183	0.013605	0.024347	0.578949	0.044903	0.044710	0.025440	0.015818	0.052505
0.463783	0.984710	0.013865	0.024622	0.586075	0.046352	0.045868	0.025723	0.016038	0.052311
0.456966	0.988481	0.014113	0.024869	0.592743	0.047799	0.047016	0.025966	0.016235	0.052036
0.449405	0.991579	0.014351	0.025089	0.599009	0.049246	0.048158	0.026167	0.016409	0.051683
0.441167	0.994079	0.014579	0.025284	0.604921	0.050695	0.049296	0.026329	0.016559	0.051258
0.432321	0.996053	0.014798	0.025455	0.610522	0.052147	0.050436	0.026452	0.016686	0.050767
0.422932	0.997566	0.015007	0.025605	0.615845	0.053605	0.051579	0.026537	0.016789	0.050216
0.413065	0.998675	0.015208	0.025734	0.620914	0.055072	0.052729	0.026585	0.016870	0.049610
0.402782	0.999428	0.015401	0.025843	0.625749	0.056550	0.053888	0.026596	0.016927	0.048954
0.392144	0.999860	0.015586	0.025934	0.630361	0.058040	0.055060	0.026572	0.016960	0.048254
0.381213	1.000000	0.015764	0.026008	0.634759	0.059544	0.056246	0.026513	0.016971	0.047516
0.370047	0.999869	0.015935	0.026066	0.638949	0.061062	0.057450	0.026421	0.016959	0.046747
0.358705	0.999485	0.016100	0.026110	0.642935	0.062593	0.058673	0.026298	0.016925	0.045952
0.347242	0.998869	0.016259	0.026143	0.646724	0.064135	0.059919	0.026147	0.016871	0.045139
0.335714	0.998034	0.016414	0.026166	0.650328	0.065689	0.061188	0.025970	0.016797	0.044312
0.324174	0.996989	0.016564	0.026183	0.653757	0.067252	0.062483	0.025772	0.016705	0.043476
0.312674	0.995733	0.016710	0.026196	0.657023	0.068826	0.063804	0.025556	0.016596	0.042637
0.301264	0.994266	0.016854	0.026206	0.660145	0.070409	0.065152	0.025324	0.016470	0.041797
0.289993	0.992587	0.016994	0.026215	0.663146	0.072005	0.066528	0.025079	0.016330	0.040959
0.278905	0.990706	0.017132	0.026226	0.666060	0.073614	0.067929	0.024825	0.016175	0.040128
0.268047	0.988639	0.017267	0.026241	0.668921	0.075239	0.069356	0.024564	0.016006	0.039303
0.257458	0.986412	0.017399	0.026262	0.671762	0.076883	0.070806	0.024299	0.015825	0.038489
0.247180	0.984055	0.017529	0.026289	0.674620	0.078549	0.072276	0.024032	0.015633	0.037686
0.237248	0.981600	0.017655	0.026324	0.677536	0.080238	0.073763	0.023766	0.015431	0.036897
0.227697	0.979073	0.017778	0.026369	0.680546	0.081952	0.075262	0.023504	0.015221	0.036125
0.218558	0.976491	0.017897	0.026425	0.683686	0.083691	0.076770	0.023248	0.015006	0.035371
0.209858	0.973856	0.018011	0.026492	0.686988	0.085454	0.078282	0.023002	0.014787	0.034637
0.201623	0.971160	0.018121	0.026573	0.690481	0.087243	0.079795	0.022766	0.014566	0.033925
0.193873	0.968379	0.018226	0.026666	0.694200	0.089057	0.081306	0.022544	0.014346	0.033238
0.186627	0.965474	0.018326	0.026773	0.698180	0.090897	0.082811	0.022337	0.014128	0.032575
0.179902	0.962399	0.018422	0.026893	0.702457	0.092763	0.084309	0.022147	0.013913	0.031939
0.173711	0.959101	0.018512	0.027025	0.707064	0.094655	0.085798	0.021974	0.013703	0.031330
0.168066	0.955534	0.018596	0.027170	0.712030	0.096571	0.087277	0.021820	0.013498	0.030749
0.162977	0.951659	0.018674	0.027326	0.717373	0.098510	0.088747	0.021686	0.013301	0.030195
0.158453	0.947453	0.018746	0.027492	0.723106	0.100468	0.090207	0.021574	0.013113	0.029668
0.154501	0.942909	0.018810	0.027668	0.729228	0.102438	0.091658	0.021483	0.012935	0.029169
0.151130	0.938038	0.018865	0.027851	0.735732	0.104414	0.093098	0.021414	0.012767	0.028696
0.148343	0.932856	0.018912	0.028039	0.742601	0.106389	0.094526	0.021369	0.012612	0.028251
0.146147	0.927390	0.018949	0.028232	0.749813	0.108355	0.095937	0.021348	0.012471	0.027834
0.144545	0.921659	0.018976	0.028426	0.757344	0.110305	0.097328	0.021351	0.012344	0.027447
0.143542	0.915681	0.018993	0.028620	0.765172	0.112232	0.098691	0.021379	0.012232	0.027092
0.143140	0.909476	0.018998	0.028811	0.773274	0.114131	0.100019	0.021432	0.012136	0.026771
0.143341	0.903070	0.018993	0.028997	0.781619	0.115997	0.101304	0.021510	0.012057	0.026484
0.144146	0.896508	0.018977	0.029178	0.790178	0.117831	0.102535	0.021611	0.011997	0.026232
0.145557	0.889848	0.018950	0.029354	0.798914	0.119632	0.103702	0.021736	0.011955	0.026018
0.147573	0.883160	0.018912	0.029525	0.807792	0.121405	0.104794	0.021884	0.011932	0.025843
0.150194	0.876521	0.018865	0.029691	0.816768	0.123153	0.105801	0.022052	0.011929	0.025707
0.153418	0.870006	0.018807	0.029855	0.825789	0.124881	0.106714	0.022240	0.011945	0.025611
0.157242	0.863687	0.018739	0.030016	0.834797	0.126595	0.107523	0.022446	0.011981	0.025557
0.161661	0.857626	0.018660	0.030174	0.843727	0.128295	0.108222	0.022668	0.012038	0.025546
0.166670	0.851877	0.018570	0.030330	0.852512	0.129985	0.108805	0.022906	0.012114	0.025578
0.172259	0.846482	0.018469	0.030482	0.861088	0.131662	0.109268	0.023158	0.012210	0.025655
0.178420	0.841473	0.018357	0.030631	0.869398	0.133326	0.109610	0.023424	0.012326	0.025777
0.185139	0.836877	0.018235	0.030776	0.877397	0.134972	0.109830	0.023704	0.012461	0.025947
0.192400	0.832705	0.018104	0.030918	0.885045	0.136597	0.109927	0.023997	0.012614	0.026163
0.200187	0.828962	0.017963	0.031056	0.892304	0.138191	0.109901	0.024304	0.012786	0.026428
0.208478	0.825639	0.017813	0.031189	0.899148	0.139747	0.109751	0.024623	0.012976	0.026741
0.217250	0.822715	0.017656	0.031319	0.905572	0.141253	0.109474	0.024955	0.013182	0.027102
0.226478	0.820159	0.017492	0.031445	0.911593	0.142698	0.109068	0.025298	0.013403	0.027510
0.236134	0.817927	0.017323	0.031568	0.917245	0.144068	0.108532	0.025651	0.013640	0.027965
0.246189	0.815966	0.017148	0.031689	0.922563	0.145352	0.107865	0.026014	0.013891	0.028465
0.256610	0.814216	0.016970	0.031809	0.927586	0.146535	0.107073	0.026384	0.014155	0.029009
0.267364	0.812613	0.016789	0.031929	0.932353	0.147605	0.106162	0.026761	0.014433	0.029597
0.278415	0.811095	0.016606	0.032048	0.936902	0.148554	0.105144	0.027141	0.014723	0.030226
0.289726	0.809610	0.016421	0.032170	0.941268	0.149372	0.104031	0.027524	0.015027	0.030898
0.301257	0.808119	0.016234	0.032292	0.945482	0.150057	0.102838	0.027908	0.015345	0.031612
0.312966	0.806603	0.016047	0.032417	0.949575	0.150606	0.101574	0.028291	0.015678	0.032367
0.324812	0.805051	0.015858	0.032543	0.953575	0.151020	0.100253	0.028670	0.016024	0.033163
0.336749	0.803458	0.015668	0.032670	0.957503	0.151300	0.098883	0.029042	0.016385	0.034001
0.348730	0.801815	0.015476	0.032797	0.961369	0.151451	0.097473	0.029405	0.016761	0.034879
0.360708	0.800114	0.015281	0.032923	0.965177	0.151476	0.096030	0.029755	0.017152	0.035795
0.372631	0.798346	0.015085	0.033045	0.968920	0.151380	0.094563	0.030089	0.017558	0.036749
0.384448	0.796510	0.014885	0.033163	0.972584	0.151165	0.093078	0.030404	0.017980	0.037738
0.396105	0.794602	0.014682	0.033274	0.976150	0.150835	0.091578	0.030696	0.018417	0.038761
0.407543	0.792615	0.014477	0.033375	0.979588	0.150392	0.090069	0.030963	0.018869	0.039815
0.418703	0.790533	0.014269	0.033465	0.982870	0.149843	0.088554	0.031204	0.019336	0.040897
0.429522	0.788330	0.014058	0.033542	0.985966	0.149199	0.087036	0.031417	0.019819	0.042003
0.439933	0.785972	0.013845	0.033607	0.988846	0.148475	0.085516	0.031601	0.020317	0.043131
0.449866	0.783422	0.013632	0.033658	0.991478	0.147691	0.083995	0.031757	0.020831	0.044274
0.459248	0.780648	0.013418	0.033698	0.993827	0.146870	0.082475	0.031882	0.021360	0.045429
0.468000	0.777625	0.013206	0.033726	0.995863	0.146037	0.080955	0.031976	0.021904	0.046590
0.476038	0.774342	0.012996	0.033744	0.997548	0.145217	0.079436	0.032039	0.022465	0.047751
0.483277	0.770795	0.012789	0.033754	0.998839	0.144435	0.077917	0.032073	0.023042	0.048910
0.489637	0.766995	0.012585	0.033754	0.999678	0.143712	0.076399	0.032077	0.023639	0.050060
0.495053	0.762957	0.012385	0.033746	1.000000	0.143069	0.074885	0.032055	0.024256	0.051201
0.499485	0.758700	0.012190	0.033731	0.999728	0.142526	0.073377	0.032008	0.024898	0.052330
0.502919	0.754241	0.012000	0.033708	0.998780	0.142101	0.071878	0.031940	0.025566	0.053445
0.505363	0.749589	0.011816	0.033679	0.997075	0.141808	0.070392	0.031853	0.026266	0.054547
0.506830	0.744746	0.011638	0.033646	0.994547	0.141663	0.068922	0.031750	0.027000	0.055634
0.507333	0.739713	0.011465	0.033610	0.991154	0.141679	0.067473	0.031634	0.027771	0.056705
0.506881	0.734492	0.011299	0.033574	0.986880	0.141865	0.066047	0.031507	0.028584	0.057756
0.505481	0.729092	0.011140	0.033539	0.981727	0.142232	0.064649	0.031369	0.029440	0.058786
0.503138	0.723527	0.010987	0.033506	0.975700	0.142785	0.063279	0.031224	0.030342	0.059793
0.499860	0.717819	0.010840	0.033478	0.968804	0.143531	0.061940	0.031072	0.031294	0.060775
0.495663	0.711990	0.010699	0.033454	0.961047	0.144471	0.060631	0.030916	0.032299	0.061734
0.490568	0.706057	0.010563	0.033435	0.952439	0.145608	0.059354	0.030756	0.033360	0.062671
0.484605	0.700031	0.010433	0.033421	0.943002	0.146940	0.058107	0.030596	0.034482	0.063589
0.477813	0.693912	0.010309	0.033414	0.932766	0.148463	0.056889	0.030436	0.035668	0.064491
0.470241	0.687696	0.010189	0.033412	0.921764	0.150174	0.055699	0.030279	0.036922	0.065382
0.461946	0.681379	0.010076	0.033418	0.910035	0.152065	0.054535	0.030127	0.038249	0.066261
0.452993	0.674968	0.009967	0.033430	0.897622	0.154128	0.053397	0.029980	0.039650	0.067133
0.443451	0.668478	0.009865	0.033452	0.884568	0.156353	0.052283	0.029841	0.041130	0.067997
0.433386	0.661940	0.009769	0.033482	0.870910	0.158727	0.051194	0.029709	0.042689	0.068854
0.422860	0.655385	0.009679	0.033523	0.856685	0.161238	0.050130	0.029585	0.044331	0.069703
0.411932	0.648847	0.009596	0.033574	0.841926	0.163868	0.049092	0.029470	0.046055	0.070545
0.400655	0.642353	0.009520	0.033635	0.826680	0.166603	0.048080	0.029362	0.047862	0.071379
0.389080	0.635926	0.009452	0.033706	0.811012	0.169422	0.047095	0.029263	0.049753	0.072203
0.377255	0.629587	0.009391	0.033787	0.795001	0.172306	0.046140	0.029171	0.051727	0.073017
0.365229	0.623352	0.009337	0.033876	0.778730	0.175231	0.045216	0.029086	0.053782	0.073820
0.353051	0.617233	0.009291	0.033972	0.762286	0.178172	0.044323	0.029009	0.055918	0.074613
0.340770	0.611239	0.009254	0.034074	0.745747	0.181104	0.043462	0.028938	0.058131	0.075394
0.328434	0.605381	0.009225	0.034182	0.729192	0.183999	0.042634	0.028875	0.060422	0.076164
0.316091	0.599665	0.009204	0.034293	0.712691	0.186828	0.041838	0.028817	0.062787	0.076920
0.303786	0.594105	0.009193	0.034408	0.696310	0.189566	0.041076	0.028765	0.065226	0.077661
0.291566	0.588712	0.009191	0.034525	0.680103	0.192186	0.040347	0.028718	0.067738	0.078385
0.279474	0.583506	0.009199	0.034644	0.664119	0.194666	0.039653	0.028674	0.070321	0.079090
0.267551	0.578510	0.009217	0.034764	0.648397	0.196983	0.038993	0.028632	0.072976	0.079777
0.255837	0.573749	0.009245	0.034883	0.632972	0.199121	0.038368	0.028592	0.075702	0.080443
0.244369	0.569248	0.009283	0.035002	0.617873	0.201063	0.037778	0.028551	0.078497	0.081089
0.233185	0.565029	0.009332	0.035119	0.603124	0.202796	0.037224	0.028508	0.081361	0.081715
0.222316	0.561107	0.009391	0.035235	0.588749	0.204308	0.036705	0.028463	0.084290	0.082319
0.211794	0.557494	0.009461	0.035348	0.574767	0.205590	0.036221	0.028412	0.087282	0.082902
0.201646	0.554199	0.009542	0.035459	0.561193	0.206629	0.035772	0.028355	0.090330	0.083462
0.191899	0.551224	0.009634	0.035566	0.548041	0.207414	0.035357	0.028292	0.093429	0.083998
0.182575	0.548565	0.009738	0.035668	0.535315	0.207929	0.034975	0.028220	0.096573	0.084506
0.173695	0.546219	0.009853	0.035763	0.523015	0.208162	0.034624	0.028139	0.099752	0.084984
0.165276	0.544182	0.009981	0.035851	0.511134	0.208101	0.034306	0.028048	0.102960	0.085427
0.157334	0.542443	0.010121	0.035930	0.499658	0.207737	0.034019	0.027946	0.106187	0.085829
0.149882	0.540990	0.010276	0.035998	0.488568	0.207068	0.033765	0.027833	0.109424	0.086185
0.142930	0.539808	0.010445	0.036055	0.477841	0.206096	0.033545	0.027707	0.112662	0.086489
0.136486	0.538883	0.010631	0.036101	0.467450	0.204831	0.033360	0.027567	0.115894	0.086738
0.130558	0.538200	0.010835	0.036135	0.457367	0.203284	0.033211	0.027412	0.119113	0.086925
0.125151	0.537747	0.011058	0.036158	0.447564	0.201469	0.033098	0.027239	0.122312	0.087050
0.120267	0.537515	0.011300	0.036172	0.438015	0.199403	0.033023	0.027049	0.125489	0.087108
0.115909	0.537490	0.011564	0.036176	0.428702	0.197099	0.032985	0.026839	0.128641	0.087101
0.112075	0.537662	0.011850	0.036173	0.419614	0.194572	0.032984	0.026609	0.131766	0.087028
0.108763	0.538019	0.012158	0.036164	0.410746	0.191834	0.033020	0.026360	0.134863	0.086890
0.105970	0.538554	0.012490	0.036150	0.402099	0.188898	0.033091	0.026091	0.137930	0.086688
0.103691	0.539262	0.012846	0.036134	0.393676	0.185775	0.033198	0.025802	0.140967	0.086424
0.101917	0.540134	0.013227	0.036117	0.385483	0.182473	0.033339	0.025496	0.143971	0.086100
0.100641	0.541156	0.013633	0.036099	0.377528	0.179001	0.033514	0.025172	0.146939	0.085715
0.099852	0.542314	0.014066	0.036083	0.369814	0.175366	0.033722	0.024833	0.149867	0.085269
0.099538	0.543585	0.014526	0.036068	0.362347	0.171573	0.033963	0.024480	0.152748	0.084761
0.099687	0.544945	0.015015	0.036055	0.355135	0.167630	0.034236	0.024113	0.155573	0.084190
0.100284	0.546370	0.015534	0.036043	0.348193	0.163544	0.034541	0.023736	0.158334	0.083554
0.101315	0.547834	0.016085	0.036033	0.341537	0.159325	0.034878	0.023348	0.161019	0.082855
0.102761	0.549308	0.016670	0.036024	0.335184	0.154986	0.035247	0.022951	0.163619	0.082092
0.104606	0.550763	0.017290	0.036017	0.329148	0.150542	0.035646	0.022546	0.166124	0.081268
0.106829	0.552174	0.017947	0.036016	0.323441	0.146011	0.036076	0.022133	0.168524	0.080388
0.109409	0.553519	0.018642	0.036021	0.318077	0.141411	0.036537	0.021714	0.170811	0.079455
0.112324	0.554788	0.019378	0.036038	0.313064	0.136763	0.037028	0.021290	0.172979	0.078476
0.115550	0.555979	0.020154	0.036071	0.308410	0.132090	0.037550	0.020862	0.175020	0.077458
0.119062	0.557094	0.020972	0.036126	0.304120	0.127411	0.038102	0.020430	0.176931	0.076407
0.122835	0.558137	0.021832	0.036208	0.300199	0.122748	0.038687	0.019996	0.178710	0.075331
0.126843	0.559107	0.022735	0.036323	0.296654	0.118121	0.039303	0.019561	0.180354	0.074238
0.131058	0.560000	0.023682	0.036475	0.293492	0.113548	0.039950	0.019125	0.181865	0.073135
0.135454	0.560812	0.024672	0.036669	0.290716	0.109046	0.040629	0.018689	0.183245	0.072027
0.140004	0.561537	0.025707	0.036910	0.288330	0.104630	0.041338	0.018254	0.184494	0.070920
0.144681	0.562171	0.026788	0.037204	0.286331	0.100316	0.042077	0.017820	0.185617	0.069818
0.149460	0.562705	0.027916	0.037555	0.284715	0.096117	0.042846	0.017389	0.186617	0.068727
0.154315	0.563132	0.029091	0.037971	0.283477	0.092046	0.043645	0.016961	0.187495	0.067649
0.159224	0.563439	0.030317	0.038459	0.282607	0.088118	0.044473	0.016538	0.188253	0.066589
0.164165	0.563610	0.031592	0.039025	0.282096	0.084344	0.045331	0.016120	0.188890	0.065547
0.169118	0.563632	0.032920	0.039679	0.281935	0.080738	0.046221	0.015708	0.189403	0.064527
0.174062	0.563495	0.034298	0.040430	0.282116	0.077312	0.047144	0.015304	0.189788	0.063527
0.178977	0.563193	0.035729	0.041285	0.282626	0.074081	0.048103	0.014907	0.190037	0.062549
0.183842	0.562723	0.037210	0.042253	0.283454	0.071055	0.049099	0.014519	0.190144	0.061590
0.188633	0.562087	0.038743	0.043344	0.284582	0.068248	0.050137	0.014140	0.190103	0.060651
0.193327	0.561287	0.040325	0.044565	0.285990	0.065671	0.051220	0.013770	0.189908	0.059731
0.197899	0.560322	0.041957	0.045925	0.287652	0.063336	0.052352	0.013411	0.189553	0.058828
0.202323	0.559188	0.043636	0.047432	0.289542	0.061253	0.053535	0.013061	0.189035	0.057941
0.206575	0.557883	0.045363	0.049095	0.291624	0.059432	0.054773	0.012722	0.188353	0.057070
0.210628	0.556405	0.047135	0.050922	0.293863	0.057883	0.056069	0.012393	0.187506	0.056215
0.214453	0.554759	0.048950	0.052921	0.296215	0.056614	0.057425	0.012073	0.186497	0.055374
0.218022	0.552954	0.050805	0.055098	0.298635	0.055634	0.058841	0.011763	0.185330	0.054548
0.221303	0.551003	0.052698	0.057459	0.301073	0.054950	0.060318	0.011462	0.184010	0.053737
0.224270	0.548919	0.054626	0.060010	0.303473	0.054571	0.061858	0.011169	0.182543	0.052940
0.226900	0.546713	0.056586	0.062756	0.305781	0.054503	0.063461	0.010885	0.180939	0.052159
0.229173	0.544394	0.058575	0.065700	0.307939	0.054751	0.065127	0.010608	0.179206	0.051393
0.231078	0.541965	0.060592	0.068844	0.309890	0.055321	0.066860	0.010339	0.177354	0.050643
0.232608	0.539425	0.062633	0.072192	0.311575	0.056216	0.068662	0.010078	0.175392	0.049908
0.233765	0.536773	0.064695	0.075745	0.312936	0.057441	0.070535	0.009823	0.173330	0.049189
0.234552	0.534011	0.066775	0.079504	0.313913	0.058998	0.072485	0.009577	0.171175	0.048482
0.234978	0.531146	0.068869	0.083469	0.314450	0.060889	0.074517	0.009338	0.168933	0.047787
0.235053	0.528191	0.070972	0.087640	0.314502	0.063116	0.076634	0.009106	0.166607	0.047101
0.234786	0.525160	0.073081	0.092017	0.314039	0.065679	0.078844	0.008882	0.164200	0.046421
0.234183	0.522068	0.075192	0.096596	0.313045	0.068578	0.081151	0.008665	0.161711	0.045742
0.233251	0.518926	0.077300	0.101373	0.311511	0.071811	0.083561	0.008456	0.159142	0.045061
0.231992	0.515744	0.079404	0.106346	0.309439	0.075377	0.086077	0.008253	0.156492	0.044375
0.230410	0.512535	0.081498	0.111508	0.306843	0.079272	0.088703	0.008057	0.153760	0.043681
0.228510	0.509312	0.083582	0.116854	0.303751	0.083491	0.091442	0.007866	0.150949	0.042976
0.226297	0.506091	0.085654	0.122376	0.300206	0.088030	0.094293	0.007681	0.148059	0.042261
0.223782	0.502884	0.087713	0.128066	0.296254	0.092882	0.097258	0.007501	0.145094	0.041534
0.220977	0.499698	0.089760	0.133914	0.291940	0.098039	0.100336	0.007325	0.142058	0.040797
0.217898	0.496538	0.091795	0.139911	0.287311	0.103492	0.103527	0.007153	0.138957	0.040051
0.214565	0.493403	0.093816	0.146045	0.282409	0.109232	0.106831	0.006985	0.135797	0.039299
0.210999	0.490289	0.095821	0.152306	0.277277	0.115248	0.110248	0.006821	0.132586	0.038542
0.207224	0.487186	0.097810	0.158678	0.271959	0.121529	0.113776	0.006662	0.129334	0.037783
0.203267	0.484083	0.099780	0.165148	0.266497	0.128063	0.117416	0.006507	0.126050	0.037022
0.199151	0.480959	0.101731	0.171697	0.260935	0.134836	0.121166	0.006357	0.122744	0.036262
0.194904	0.477796	0.103662	0.178306	0.255314	0.141836	0.125027	0.006212	0.119427	0.035502
0.190551	0.474571	0.105573	0.184953	0.249672	0.149047	0.128996	0.006073	0.116109	0.034745
0.186117	0.471269	0.107461	0.191614	0.244047	0.156456	0.133074	0.005939	0.112799	0.033992
0.181622	0.467877	0.109324	0.198266	0.238473	0.164048	0.137258	0.005812	0.109505	0.033242
0.177087	0.464387	0.111161	0.204888	0.232982	0.171804	0.141547	0.005692	0.106236	0.032498
0.172529	0.460795	0.112973	0.211462	0.227605	0.179709	0.145941	0.005578	0.102996	0.031760
0.167964	0.457097	0.114762	0.217978	0.222365	0.187743	0.150435	0.005471	0.099792	0.031029
0.163405	0.453287	0.116530	0.224427	0.217287	0.195883	0.155028	0.005372	0.096626	0.030305
0.158864	0.449355	0.118279	0.230804	0.212391	0.204107	0.159712	0.005280	0.093500	0.029589
0.154351	0.445291	0.120012	0.237102	0.207693	0.212389	0.164481	0.005196	0.090416	0.028881
0.149873	0.441083	0.121730	0.243312	0.203206	0.220704	0.169323	0.005119	0.087375	0.028182
0.145437	0.436721	0.123437	0.249427	0.198941	0.229029	0.174228	0.005050	0.084377	0.027494
0.141047	0.432199	0.125137	0.255443	0.194906	0.237341	0.179181	0.004989	0.081422	0.026816
0.136710	0.427515	0.126831	0.261356	0.191105	0.245616	0.184169	0.004936	0.078511	0.026149
0.132429	0.422672	0.128524	0.267168	0.187540	0.253831	0.189176	0.004890	0.075645	0.025494
0.128209	0.417679	0.130217	0.272884	0.184208	0.261957	0.194192	0.004853	0.072825	0.024852
0.124055	0.412553	0.131911	0.278513	0.181108	0.269966	0.199205	0.004824	0.070052	0.024224
0.119972	0.407316	0.133609	0.284065	0.178232	0.277829	0.204209	0.004803	0.067328	0.023609
0.115965	0.401991	0.135311	0.289548	0.175575	0.285518	0.209196	0.004789	0.064657	0.023007
0.112038	0.396604	0.137019	0.294971	0.173130	0.293006	0.214157	0.004783	0.062040	0.022420
0.108196	0.391181	0.138733	0.300339	0.170892	0.300267	0.219080	0.004785	0.059481	0.021846
0.104443	0.385742	0.140454	0.305655	0.168858	0.307277	0.223954	0.004795	0.056983	0.021285
0.100783	0.380305	0.142183	0.310917	0.167023	0.314015	0.228766	0.004813	0.054550	0.020737
0.097219	0.374882	0.143924	0.316118	0.165383	0.320458	0.233507	0.004838	0.052187	0.020203
0.093754	0.369482	0.145683	0.321249	0.163934	0.326580	0.238167	0.004872	0.049894	0.019684
0.090390	0.364109	0.147465	0.326293	0.162673	0.332357	0.242736	0.004915	0.047677	0.019179
0.087132	0.358767	0.149278	0.331232	0.161594	0.337759	0.247206	0.004967	0.045536	0.018690
0.083980	0.353459	0.151128	0.336044	0.160689	0.342756	0.251573	0.005029	0.043474	0.018217
0.080936	0.348188	0.153019	0.340702	0.159947	0.347322	0.255833	0.005102	0.041492	0.017760
0.078003	0.342962	0.154952	0.345175	0.159358	0.351434	0.259992	0.005187	0.039591	0.017320
0.075180	0.337789	0.156929	0.349427	0.158908	0.355085	0.264056	0.005284	0.037771	0.016897
0.072468	0.332679	0.158945	0.353420	0.158580	0.358277	0.268038	0.005395	0.036034	0.016491
0.069866	0.327648	0.160996	0.357110	0.158358	0.361029	0.271950	0.005520	0.034377	0.016101
0.067375	0.322708	0.163074	0.360451	0.158225	0.363368	0.275808	0.005660	0.032800	0.015727
0.064991	0.317874	0.165172	0.363393	0.158161	0.365327	0.279625	0.005816	0.031303	0.015369
0.062714	0.313161	0.167279	0.365885	0.158144	0.366939	0.283415	0.005989	0.029882	0.015025
0.060539	0.308581	0.169386	0.367877	0.158153	0.368234	0.287192	0.006179	0.028535	0.014696
0.058464	0.304147	0.171484	0.369329	0.158165	0.369239	0.290971	0.006386	0.027261	0.014379
0.056487	0.299869	0.173564	0.370216	0.158156	0.369975	0.294769	0.006613	0.026055	0.014076
0.054603	0.295759	0.175619	0.370523	0.158104	0.370463	0.298600	0.006858	0.024915	0.013785
0.052810	0.291824	0.177642	0.370248	0.157988	0.370725	0.302475	0.007123	0.023836	0.013505
0.051106	0.288071	0.179625	0.369393	0.157786	0.370790	0.306406	0.007407	0.022816	0.013237
0.049489	0.284502	0.181561	0.367963	0.157476	0.370692	0.310401	0.007712	0.021850	0.012980
0.047956	0.281117	0.183442	0.365960	0.157037	0.370476	0.314468	0.008038	0.020936	0.012736
0.046507	0.277910	0.185259	0.363385	0.156451	0.370193	0.318614	0.008384	0.020069	0.012503
0.045142	0.274872	0.187004	0.360244	0.155701	0.369898	0.322846	0.008751	0.019249	0.012282
0.043860	0.271991	0.188670	0.356545	0.154775	0.369645	0.327173	0.009140	0.018472	0.012074
0.042662	0.269247	0.190248	0.352309	0.153661	0.369484	0.331605	0.009550	0.017735	0.011877
0.041551	0.266621	0.191731	0.347563	0.152347	0.369465	0.336148	0.009984	0.017038	0.011692
0.040529	0.264087	0.193109	0.342344	0.150827	0.369629	0.340806	0.010440	0.016378	0.011518
0.039597	0.261619	0.194375	0.336696	0.149098	0.370015	0.345581	0.010921	0.015753	0.011356
0.038758	0.259187	0.195519	0.330667	0.147157	0.370660	0.350476	0.011428	0.015163	0.011204
0.038015	0.256765	0.196535	0.324308	0.145005	0.371592	0.355494	0.011962	0.014607	0.011062
0.037370	0.254325	0.197421	0.317669	0.142648	0.372841	0.360637	0.012525	0.014082	0.010930
0.036823	0.251844	0.198177	0.310798	0.140096	0.374429	0.365905	0.013117	0.013588	0.010808
0.036376	0.249300	0.198805	0.303740	0.137360	0.376377	0.371297	0.013739	0.013123	0.010694
0.036031	0.246676	0.199314	0.296536	0.134454	0.378700	0.376810	0.014393	0.012688	0.010588
0.035787	0.243957	0.199711	0.289224	0.131390	0.381413	0.382441	0.015080	0.012279	0.010489
0.035645	0.241132	0.200009	0.281836	0.128183	0.384524	0.388186	0.015800	0.011897	0.010396
0.035606	0.238194	0.200220	0.274403	0.124849	0.388038	0.394041	0.016553	0.011540	0.010309
0.035670	0.235137	0.200355	0.266953	0.121402	0.391956	0.400000	0.017341	0.011206	0.010227
0.035836	0.231959	0.200424	0.259512	0.117858	0.396275	0.406058	0.018164	0.010895	0.010149
0.036106	0.228658	0.200433	0.252104	0.114233	0.400988	0.412210	0.019021	0.010604	0.010074
0.036479	0.225234	0.200392	0.244750	0.110541	0.406080	0.418454	0.019914	0.010333	0.010002
0.036956	0.221684	0.200307	0.237470	0.106799	0.411535	0.424784	0.020842	0.010080	0.009932
0.037537	0.218006	0.200186	0.230282	0.103021	0.417331	0.431193	0.021805	0.009844	0.009864
0.038223	0.214196	0.200038	0.223202	0.099222	0.423437	0.437668	0.022802	0.009625	0.009797
0.039013	0.210253	0.199871	0.216247	0.095412	0.429819	0.444191	0.023834	0.009421	0.009731
0.039909	0.206182	0.199694	0.209430	0.091603	0.436436	0.450738	0.024899	0.009232	0.009667
0.040909	0.201988	0.199513	0.202766	0.087805	0.443242	0.457282	0.025997	0.009058	0.009603
0.042015	0.197685	0.199335	0.196270	0.084029	0.450183	0.463793	0.027127	0.008898	0.009540
0.043225	0.193289	0.199168	0.189956	0.080282	0.457202	0.470240	0.028286	0.008752	0.009478
0.044538	0.188822	0.199016	0.183838	0.076572	0.464238	0.476585	0.029472	0.008620	0.009417
0.045953	0.184309	0.198885	0.177926	0.072909	0.471228	0.482791	0.030685	0.008502	0.009357
0.047469	0.179773	0.198783	0.172232	0.069298	0.478108	0.488819	0.031920	0.008398	0.009298
0.049086	0.175240	0.198715	0.166764	0.065746	0.484808	0.494634	0.033176	0.008308	0.009241
0.050800	0.170732	0.198689	0.161526	0.062259	0.491255	0.500207	0.034449	0.008231	0.009186
0.052611	0.166273	0.198711	0.156524	0.058841	0.497384	0.505511	0.035734	0.008168	0.009132
0.054516	0.161881	0.198785	0.151762	0.055498	0.503138	0.510522	0.037028	0.008119	0.009080
0.056513	0.157574	0.198915	0.147243	0.052234	0.508478	0.515210	0.038326	0.008082	0.009030
0.058601	0.153369	0.199104	0.142968	0.049052	0.513373	0.519549	0.039623	0.008059	0.008980
0.060781	0.149280	0.199353	0.138941	0.045954	0.517798	0.523515	0.040912	0.008048	0.008932
0.063052	0.145322	0.199668	0.135163	0.042945	0.521737	0.527093	0.042187	0.008049	0.008885
0.065416	0.141507	0.200052	0.131640	0.040026	0.525194	0.530275	0.043442	0.008061	0.008840
0.067874	0.137849	0.200511	0.128378	0.037199	0.528193	0.533059	0.044669	0.008085	0.008795
0.070431	0.134359	0.201052	0.125385	0.034465	0.530774	0.535440	0.045864	0.008118	0.008752
0.073089	0.131047	0.201680	0.122667	0.031826	0.532985	0.537414	0.047021	0.008162	0.008710
0.075851	0.127923	0.202401	0.120228	0.029282	0.534872	0.538976	0.048134	0.008215	0.008669
0.078723	0.124993	0.203218	0.118074	0.026834	0.536480	0.540129	0.049202	0.008276	0.008629
0.081706	0.122264	0.204133	0.116207	0.024481	0.537851	0.540884	0.050226	0.008346	0.008590
0.084806	0.119741	0.205147	0.114627	0.022224	0.539027	0.541259	0.051207	0.008423	0.008552
0.088024	0.117426	0.206257	0.113337	0.020061	0.540052	0.541279	0.052151	0.008508	0.008516
0.091363	0.115322	0.207458	0.112337	0.017993	0.540970	0.540965	0.053063	0.008599	0.008481
0.094824	0.113433	0.208741	0.111625	0.016018	0.541822	0.540337	0.053948	0.008699	0.008448
0.098410	0.111759	0.210096	0.111201	0.014135	0.542646	0.539406	0.054812	0.008805	0.008416
0.102121	0.110303	0.211508	0.111066	0.012345	0.543480	0.538186	0.055663	0.008918	0.008387
0.105961	0.109065	0.212961	0.111219	0.010647	0.544362	0.536688	0.056507	0.009039	0.008361
0.109933	0.108043	0.214435	0.111662	0.009041	0.545326	0.534932	0.057356	0.009167	0.008337
0.114040	0.107235	0.215906	0.112395	0.007526	0.546404	0.532943	0.058219	0.009303	0.008316
0.118288	0.106637	0.217348	0.113419	0.006104	0.547618	0.530756	0.059109	0.009448	0.008298
0.122683	0.106243	0.218734	0.114736	0.004775	0.548990	0.528412	0.060039	0.009604	0.008283
0.127231	0.106048	0.220033	0.116348	0.003538	0.550534	0.525962	0.061023	0.009771	0.008271
0.131941	0.106042	0.221211	0.118254	0.002395	0.552262	0.523457	0.062074	0.009950	0.008262
0.136823	0.106216	0.222238	0.120455	0.001347	0.554185	0.520949	0.063204	0.010145	0.008257
0.141886	0.106559	0.223082	0.122949	0.000394	0.556311	0.518484	0.064426	0.010357	0.008256
0.147142	0.107058	0.223715	0.125735	-0.000464	0.558652	0.516103	0.065751	0.010590	0.008259
0.152602	0.107700	0.224112	0.128808	-0.001224	0.561220	0.513847	0.067190	0.010847	0.008267
0.158278	0.108470	0.224252	0.132163	-0.001886	0.564030	0.511753	0.068752	0.011133	0.008282
0.164181	0.109353	0.224122	0.135792	-0.002448	0.567099	0.509857	0.070448	0.011451	0.008303
0.170321	0.110336	0.223710	0.139684	-0.002911	0.570439	0.508195	0.072290	0.011806	0.008331
0.176709	0.111404	0.223008	0.143829	-0.003272	0.574061	0.506799	0.074287	0.012203	0.008368
0.183350	0.112544	0.222005	0.148212	-0.003529	0.577969	0.505697	0.076453	0.012645	0.008412
0.190251	0.113743	0.220694	0.152818	-0.003682	0.582171	0.504913	0.078798	0.013138	0.008466
0.197414	0.114989	0.219067	0.157629	-0.003728	0.586676	0.504464	0.081334	0.013685	0.008529
0.204840	0.116273	0.217124	0.162626	-0.003666	0.591499	0.504366	0.084075	0.014291	0.008601
0.212527	0.117582	0.214869	0.167786	-0.003492	0.596654	0.504629	0.087032	0.014959	0.008684
0.220476	0.118906	0.212314	0.173090	-0.003205	0.602159	0.505263	0.090215	0.015695	0.008777
0.228683	0.120234	0.209477	0.178514	-0.002802	0.608026	0.506275	0.093637	0.016502	0.008881
0.237149	0.121552	0.206378	0.184035	-0.002281	0.614264	0.507668	0.097305	0.017385	0.008997
0.245872	0.122847	0.203043	0.189627	-0.001638	0.620874	0.509443	0.101229	0.018348	0.009124
0.254854	0.124107	0.199498	0.195261	-0.000870	0.627849	0.511598	0.105416	0.019395	0.009264
0.264097	0.125321	0.195767	0.200908	0.000025	0.635174	0.514129	0.109873	0.020529	0.009415
0.273605	0.126479	0.191874	0.206536	0.001050	0.642826	0.517028	0.114605	0.021755	0.009579
0.283381	0.127575	0.187840	0.212112	0.002209	0.650778	0.520283	0.119618	0.023076	0.009755
0.293432	0.128601	0.183685	0.217604	0.003506	0.658999	0.523881	0.124913	0.024495	0.009944
0.303761	0.129554	0.179428	0.222980	0.004944	0.667457	0.527802	0.130494	0.026017	0.010146
0.314374	0.130434	0.175086	0.228212	0.006528	0.676117	0.532025	0.136359	0.027644	0.010362
0.325273	0.131242	0.170676	0.233273	0.008261	0.684944	0.536520	0.142510	0.029380	0.010591
0.336463	0.131981	0.166215	0.238136	0.010146	0.693901	0.541261	0.148945	0.031231	0.010835
0.347944	0.132654	0.161720	0.242775	0.012189	0.702951	0.546220	0.155664	0.033198	0.011094
0.359716	0.133262	0.157206	0.247161	0.014393	0.712059	0.551367	0.162668	0.035287	0.011368
0.371775	0.133808	0.152688	0.251270	0.016762	0.721196	0.556675	0.169956	0.037501	0.011658
0.384115	0.134291	0.148182	0.255077	0.019300	0.730336	0.562107	0.177527	0.039843	0.011963
0.396728	0.134711	0.143700	0.258566	0.022012	0.739455	0.567630	0.185379	0.042315	0.012286
0.409600	0.135070	0.139255	0.261728	0.024902	0.748534	0.573203	0.193509	0.044920	0.012627
0.422711	0.135370	0.134859	0.264562	0.027975	0.757569	0.578785	0.201913	0.047661	0.012986
0.436040	0.135614	0.130524	0.267070	0.031235	0.766559	0.584328	0.210585	0.050539	0.013365
0.449557	0.135804	0.126260	0.269260	0.034689	0.775503	0.589778	0.219518	0.053557	0.013764
0.463227	0.135946	0.122077	0.271141	0.038343	0.784394	0.595077	0.228702	0.056718	0.014183
0.477009	0.136043	0.117983	0.272721	0.042202	0.793223	0.600168	0.238123	0.060025	0.014625
0.490853	0.136102	0.113987	0.274007	0.046274	0.801978	0.604997	0.247768	0.063482	0.015089
0.504707	0.136128	0.110096	0.275012	0.050565	0.810645	0.609518	0.257621	0.067094	0.015576
0.518513	0.136127	0.106318	0.275745	0.055083	0.819213	0.613698	0.267668	0.070866	0.016087
0.532209	0.136106	0.102661	0.276216	0.059833	0.827677	0.617515	0.277898	0.074802	0.016622
0.545733	0.136069	0.099128	0.276435	0.064821	0.836047	0.620951	0.288299	0.078906	0.017182
0.559023	0.136017	0.095726	0.276409	0.070052	0.844344	0.623992	0.298863	0.083181	0.017767
0.572020	0.135954	0.092458	0.276143	0.075529	0.852596	0.626632	0.309579	0.087631	0.018378
0.584670	0.135882	0.089324	0.275643	0.081257	0.860823	0.628874	0.320434	0.092259	0.019016
0.596923	0.135804	0.086326	0.274912	0.087237	0.869041	0.630730	0.331411	0.097067	0.019679
0.608736	0.135723	0.083464	0.273949	0.093471	0.877257	0.632213	0.342493	0.102054	0.020368
0.620073	0.135644	0.080736	0.272755	0.099960	0.885475	0.633330	0.353660	0.107221	0.021081
0.630904	0.135568	0.078142	0.271329	0.106706	0.893690	0.634085	0.364894	0.112565	0.021819
0.641209	0.135500	0.075681	0.269676	0.113708	0.901893	0.634478	0.376172	0.118083	0.022581
0.650973	0.135441	0.073355	0.267803	0.120967	0.910064	0.634504	0.387471	0.123772	0.023365
0.660185	0.135391	0.071164	0.265721	0.128482	0.918173	0.634161	0.398763	0.129626	0.024172
0.668838	0.135347	0.069111	0.263445	0.136256	0.926178	0.633442	0.410017	0.135640	0.025000
0.676919	0.135306	0.067195	0.260996	0.144287	0.934024	0.632341	0.421199	0.141809	0.025850
0.684412	0.135262	0.065419	0.258390	0.152577	0.941645	0.630854	0.432274	0.148126	0.026722
0.691296	0.135210	0.063781	0.255649	0.161129	0.948966	0.628987	0.443206	0.154585	0.027616
0.697549	0.135141	0.062281	0.252788	0.169945	0.955915	0.626768	0.453962	0.161184	0.028532
0.703155	0.135048	0.060919	0.249824	0.179030	0.962429	0.624243	0.464515	0.167917	0.029471
0.708102	0.134921	0.059692	0.246771	0.188387	0.968464	0.621471	0.474838	0.174781	0.030434
0.712387	0.134748	0.058598	0.243641	0.198018	0.973995	0.618515	0.484903	0.181773	0.031422
0.716010	0.134519	0.057634	0.240443	0.207921	0.979009	0.615433	0.494682	0.188893	0.032435
0.718977	0.134223	0.056794	0.237184	0.218095	0.983497	0.612278	0.504141	0.196145	0.033474
0.721299	0.133853	0.056074	0.233869	0.228536	0.987456	0.609096	0.513240	0.203535	0.034540
0.722992	0.133403	0.055469	0.230503	0.239244	0.990887	0.605926	0.521935	0.211069	0.035634
0.724081	0.132869	0.054974	0.227090	0.250219	0.993788	0.602802	0.530181	0.218753	0.036758
0.724597	0.132251	0.054581	0.223634	0.261470	0.996153	0.599762	0.537930	0.226592	0.037913
0.724579	0.131547	0.054286	0.220139	0.273005	0.997971	0.596854	0.545133	0.234590	0.039101
0.724069	0.130759	0.054080	0.216610	0.284830	0.999230	0.594135	0.551741	0.242747	0.040326
0.723109	0.129887	0.053957	0.213054	0.296952	0.999912	0.591676	0.557707	0.251062	0.041589
0.721738	0.128929	0.053908	0.209479	0.309372	1.000000	0.589549	0.562988	0.259533	0.042893
0.719993	0.127883	0.053927	0.205895	0.322090	0.999480	0.587820	0.567547	0.268157	0.044240
0.717902	0.126747	0.054005	0.202317	0.335100	0.998356	0.586550	0.571361	0.276928	0.045634
0.715490	0.125519	0.054132	0.198756	0.348393	0.996641	0.585792	0.574417	0.285845	0.047076
0.712771	0.124198	0.054300	0.195228	0.361958	0.994360	0.585588	0.576717	0.294906	0.048572
0.709752	0.122787	0.054498	0.191748	0.375777	0.991541	0.585973	0.578265	0.304116	0.050123
0.706432	0.121288	0.054717	0.188327	0.389829	0.988215	0.586973	0.579069	0.313478	0.051735
0.702801	0.119704	0.054945	0.184977	0.404088	0.984416	0.588607	0.579133	0.322995	0.053410
0.698843	0.118043	0.055172	0.181708	0.418522	0.980185	0.590890	0.578464	0.332667	0.055151
0.694539	0.116309	0.055388	0.178527	0.433095	0.975562	0.593829	0.577074	0.342489	0.056961
0.689864	0.114511	0.055587	0.175441	0.447763	0.970582	0.597431	0.574985	0.352458	0.058843
0.684795	0.112655	0.055766	0.172453	0.462482	0.965270	0.601697	0.572224	0.362568	0.060796
0.679306	0.110750	0.055922	0.169564	0.477203	0.959641	0.606620	0.568829	0.372813	0.062823
0.673379	0.108805	0.056053	0.166775	0.491875	0.953707	0.612189	0.564841	0.383183	0.064923
0.667001	0.106827	0.056158	0.164085	0.506443	0.947477	0.618385	0.560309	0.393672	0.067094
0.660173	0.104822	0.056238	0.161488	0.520854	0.940959	0.625182	0.555285	0.404269	0.069337
0.652905	0.102796	0.056291	0.158982	0.535052	0.934171	0.632549	0.549825	0.414966	0.071649
0.645223	0.100753	0.056318	0.156560	0.548979	0.927139	0.640448	0.543987	0.425752	0.074029
0.637164	0.098700	0.056320	0.154221	0.562577	0.919902	0.648840	0.537827	0.436608	0.076473
0.628775	0.096639	0.056296	0.151960	0.575787	0.912509	0.657686	0.531402	0.447515	0.078980
0.620106	0.094577	0.056245	0.149778	0.588557	0.905015	0.666956	0.524763	0.458447	0.081547
0.611209	0.092520	0.056168	0.147673	0.600841	0.897474	0.676632	0.517954	0.469374	0.084175
0.602128	0.090474	0.056064	0.145644	0.612596	0.889933	0.686704	0.511015	0.480265	0.086861
0.592905	0.088447	0.055933	0.143687	0.623773	0.882432	0.697163	0.503981	0.491084	0.089605
0.583577	0.086445	0.055772	0.141799	0.634320	0.875007	0.707995	0.496885	0.501794	0.092408
0.574177	0.084477	0.055582	0.139977	0.644183	0.867693	0.719176	0.489761	0.512353	0.095267
0.564739	0.082549	0.055362	0.138220	0.653313	0.860529	0.730677	0.482643	0.522723	0.098183
0.555288	0.080667	0.055111	0.136533	0.661671	0.853545	0.742467	0.475571	0.532865	0.101155
0.545845	0.078836	0.054829	0.134925	0.669223	0.846767	0.754512	0.468589	0.542747	0.104182
0.536422	0.077061	0.054515	0.133405	0.675941	0.840209	0.766776	0.461743	0.552340	0.107262
0.527025	0.075344	0.054168	0.131984	0.681797	0.833877	0.779217	0.455078	0.561613	0.110395
0.517652	0.073689	0.053788	0.130673	0.686771	0.827773	0.791794	0.448636	0.570535	0.113579
0.508296	0.072097	0.053373	0.129479	0.690864	0.821898	0.804459	0.442453	0.579074	0.116814
0.498951	0.070568	0.052925	0.128410	0.694096	0.816257	0.817161	0.436562	0.587197	0.120100
0.489611	0.069103	0.052441	0.127473	0.696505	0.810854	0.829843	0.430991	0.594880	0.123437
0.480274	0.067702	0.051921	0.126675	0.698143	0.805695	0.842447	0.425767	0.602112	0.126822
0.470946	0.066365	0.051363	0.126021	0.699059	0.800786	0.854918	0.420916	0.608895	0.130252
0.461642	0.065089	0.050765	0.125519	0.699303	0.796149	0.867203	0.416457	0.615244	0.133722
0.452387	0.063873	0.050126	0.125176	0.698926	0.791810	0.879248	0.412410	0.621178	0.137226
0.443209	0.062717	0.049443	0.124998	0.697982	0.787802	0.890991	0.408789	0.626717	0.140756
0.434146	0.061619	0.048715	0.124989	0.696535	0.784147	0.902364	0.405611	0.631884	0.144305
0.425234	0.060579	0.047942	0.125157	0.694655	0.780861	0.913295	0.402891	0.636704	0.147861
0.416512	0.059598	0.047124	0.125506	0.692416	0.777950	0.923709	0.400646	0.641203	0.151415
0.408013	0.058674	0.046264	0.126044	0.689890	0.775410	0.933541	0.398885	0.645408	0.154952
0.399771	0.057808	0.045366	0.126779	0.687143	0.773231	0.942738	0.397615	0.649340	0.158458
0.391813	0.056997	0.044433	0.127720	0.684238	0.771392	0.951266	0.396838	0.653017	0.161918
0.384159	0.056240	0.043471	0.128877	0.681236	0.769866	0.959109	0.396548	0.656456	0.165314
0.376827	0.055534	0.042484	0.130262	0.678195	0.768616	0.966264	0.396740	0.659681	0.168632
0.369826	0.054877	0.041478	0.131882	0.675173	0.767599	0.972735	0.397402	0.662719	0.171856
0.363163	0.054265	0.040457	0.133748	0.672219	0.766763	0.978534	0.398525	0.665598	0.174974
0.356839	0.053697	0.039426	0.135865	0.669377	0.766050	0.983672	0.400099	0.668340	0.177972
0.350849	0.053173	0.038388	0.138240	0.666691	0.765398	0.988150	0.402110	0.670964	0.180836
0.345186	0.052694	0.037349	0.140876	0.664199	0.764747	0.991964	0.404544	0.673483	0.183556
0.339839	0.052265	0.036313	0.143777	0.661938	0.764038	0.995091	0.407384	0.675905	0.186119
0.334792	0.051887	0.035286	0.146945	0.659938	0.763231	0.997502	0.410610	0.678237	0.188515
0.330028	0.051565	0.034273	0.150381	0.658228	0.762299	0.999154	0.414196	0.680485	0.190732
0.325524	0.051302	0.033279	0.154084	0.656833	0.761227	1.000000	0.418114	0.682658	0.192761
0.321259	0.051100	0.032310	0.158052	0.655780	0.760001	0.999983	0.422330	0.684762	0.194598
0.317206	0.050962	0.031371	0.162282	0.655086	0.758601	0.999046	0.426803	0.686800	0.196244
0.313342	0.050892	0.030467	0.166767	0.654762	0.757004	0.997143	0.431492	0.688778	0.197708
0.309645	0.050894	0.029604	0.171501	0.654814	0.755187	0.994247	0.436346	0.690703	0.199000
0.306096	0.050972	0.028787	0.176474	0.655244	0.753133	0.990356	0.441311	0.692587	0.200130
0.302684	0.051133	0.028023	0.181679	0.656053	0.750832	0.985490	0.446325	0.694448	0.201110
0.299400	0.051382	0.027315	0.187110	0.657243	0.748284	0.979691	0.451326	0.696304	0.201954
0.296240	0.051727	0.026671	0.192763	0.658812	0.745497	0.973016	0.456253	0.698176	0.202679
0.293207	0.052178	0.026096	0.198638	0.660753	0.742488	0.965535	0.461053	0.700084	0.203303
0.290305	0.052743	0.025596	0.204734	0.663058	0.739272	0.957326	0.465688	0.702042	0.203843
0.287539	0.053433	0.025175	0.211049	0.665717	0.735869	0.948465	0.470131	0.704055	0.204312
0.284912	0.054259	0.024839	0.217580	0.668720	0.732291	0.939022	0.474366	0.706124	0.204724
0.282424	0.055232	0.024595	0.224322	0.672049	0.728549	0.929061	0.478376	0.708243	0.205090
0.280074	0.056363	0.024449	0.231267	0.675685	0.724649	0.918634	0.482146	0.710408	0.205421
0.277856	0.057663	0.024409	0.238405	0.679601	0.720593	0.907785	0.485653	0.712609	0.205725
0.275760	0.059143	0.024481	0.245726	0.683761	0.716378	0.896548	0.488877	0.714833	0.206012
0.273775	0.060812	0.024675	0.253221	0.688123	0.712003	0.884943	0.491801	0.717067	0.206291
0.271884	0.062680	0.024999	0.260877	0.692635	0.707473	0.872990	0.494414	0.719297	0.206567
0.270070	0.064755	0.025461	0.268683	0.697235	0.702797	0.860709	0.496714	0.721511	0.206850
0.268311	0.067047	0.026070	0.276628	0.701852	0.697985	0.848132	0.498709	0.723692	0.207143
0.266586	0.069563	0.026833	0.284698	0.706409	0.693048	0.835303	0.500417	0.725819	0.207454
0.264873	0.072312	0.027758	0.292879	0.710818	0.688000	0.822273	0.501864	0.727862	0.207789
0.263147	0.075302	0.028854	0.301157	0.714990	0.682856	0.809097	0.503081	0.729794	0.208151
0.261385	0.078542	0.030128	0.309519	0.718831	0.677631	0.795833	0.504102	0.731591	0.208546
0.259560	0.082041	0.031588	0.317947	0.722249	0.672338	0.782533	0.504958	0.733239	0.208979
0.257645	0.085806	0.033241	0.326425	0.725156	0.666981	0.769255	0.505676	0.734736	0.209457
0.255613	0.089846	0.035095	0.334931	0.727470	0.661558	0.756051	0.506277	0.736082	0.209991
0.253439	0.094166	0.037159	0.343446	0.729119	0.656060	0.742973	0.506780	0.737278	0.210593
0.251108	0.098775	0.039440	0.351952	0.730053	0.650469	0.730066	0.507195	0.738319	0.211275
0.248611	0.103679	0.041947	0.360430	0.730235	0.644768	0.717365	0.507528	0.739195	0.212051
0.245950	0.108884	0.044689	0.368867	0.729640	0.638937	0.704902	0.507779	0.739888	0.212933
0.243133	0.114395	0.047673	0.377247	0.728243	0.632959	0.692698	0.507943	0.740384	0.213934
0.240177	0.120219	0.050910	0.385558	0.726029	0.626818	0.680773	0.508011	0.740671	0.215068
0.237100	0.126358	0.054410	0.393786	0.722991	0.620501	0.669136	0.507966	0.740748	0.216350
0.233922	0.132816	0.058186	0.401915	0.719128	0.613996	0.657792	0.507787	0.740618	0.217793
0.230663	0.139598	0.062250	0.409927	0.714446	0.607293	0.646739	0.507445	0.740282	0.219410
0.227340	0.146707	0.066613	0.417806	0.708951	0.600382	0.635965	0.506913	0.739736	0.221211
0.223971	0.154150	0.071288	0.425535	0.702652	0.593249	0.625463	0.506162	0.738972	0.223201
0.220570	0.161930	0.076287	0.433100	0.695562	0.585879	0.615224	0.505169	0.737976	0.225385
0.217149	0.170052	0.081620	0.440487	0.687702	0.578260	0.605248	0.503911	0.736731	0.227762
0.213719	0.178522	0.087299	0.447682	0.679097	0.570390	0.595533	0.502371	0.735213	0.230331
0.210287	0.187346	0.093335	0.454680	0.669774	0.562287	0.586079	0.500534	0.733395	0.233088
0.206862	0.196528	0.099737	0.461479	0.659769	0.553980	0.576879	0.498384	0.731255	0.236027
0.203453	0.206073	0.106515	0.468075	0.649124	0.545506	0.567929	0.495908	0.728775	0.239144
0.200068	0.215985	0.113677	0.474463	0.637886	0.536901	0.559223	0.493095	0.725946	0.242434
0.196715	0.226264	0.121230	0.480636	0.626107	0.528195	0.550755	0.489942	0.722760	0.245891
0.193398	0.236911	0.129180	0.486584	0.613851	0.519412	0.542517	0.486445	0.719209	0.249515
0.190121	0.247920	0.137533	0.492300	0.601194	0.510567	0.534499	0.482607	0.715280	0.253305
0.186887	0.259283	0.146292	0.497783	0.588216	0.501674	0.526682	0.478427	0.710957	0.257263
0.183695	0.270990	0.155458	0.503034	0.574998	0.492742	0.519045	0.473902	0.706218	0.261389
0.180546	0.283026	0.165031	0.508059	0.561619	0.483782	0.511565	0.469027	0.701043	0.265682
0.177438	0.295372	0.175010	0.512869	0.548158	0.474798	0.504213	0.463792	0.695410	0.270136
0.174369	0.308006	0.185391	0.517480	0.534694	0.465792	0.496962	0.458190	0.689297	0.274742
0.171335	0.320902	0.196168	0.521915	0.521303	0.456762	0.489784	0.452219	0.682686	0.279491
0.168332	0.334034	0.207334	0.526202	0.508056	0.447696	0.482656	0.445884	0.675571	0.284367
0.165356	0.347372	0.218880	0.530372	0.495023	0.438582	0.475561	0.439201	0.667961	0.289358
0.162404	0.360886	0.230796	0.534453	0.482270	0.429406	0.468483	0.432195	0.659880	0.294449
0.159472	0.374548	0.243068	0.538470	0.469857	0.420155	0.461415	0.424903	0.651360	0.299628
0.156558	0.388330	0.255679	0.542446	0.457844	0.410818	0.454348	0.417370	0.642432	0.304884
0.153660	0.402208	0.268612	0.546396	0.446283	0.401390	0.447281	0.409645	0.633127	0.310204
0.150777	0.416161	0.281847	0.550330	0.435225	0.391873	0.440210	0.401776	0.623476	0.315572
0.147909	0.430170	0.295365	0.554252	0.424712	0.382273	0.433136	0.393807	0.613517	0.320972
0.145057	0.444223	0.309147	0.558160	0.414782	0.372599	0.426053	0.385781	0.603294	0.326388
0.142221	0.458306	0.323179	0.562049	0.405467	0.362858	0.418954	0.377733	0.592861	0.331808
0.139403	0.472411	0.337446	0.565917	0.396793	0.353057	0.411829	0.369698	0.582275	0.337233
0.136606	0.486524	0.351934	0.569766	0.388778	0.343201	0.404667	0.361703	0.571594	0.342670
0.133829	0.500628	0.366629	0.573603	0.381437	0.333298	0.397460	0.353775	0.560875	0.348133
0.131075	0.514702	0.381514	0.577448	0.374778	0.323365	0.390201	0.345934	0.550169	0.353637
0.128343	0.528719	0.396569	0.581330	0.368807	0.313425	0.382884	0.338199	0.539525	0.359198
0.125632	0.542654	0.411772	0.585286	0.363523	0.303507	0.375509	0.330588	0.528984	0.364827
0.122938	0.556479	0.427099	0.589360	0.358922	0.293640	0.368075	0.323115	0.518578	0.370533
0.120258	0.570171	0.442529	0.593594	0.354993	0.283847	0.360585	0.315794	0.508336	0.376325
0.117588	0.583705	0.458042	0.598027	0.351724	0.274153	0.353045	0.308637	0.498282	0.382216
0.114927	0.597056	0.473622	0.602691	0.349094	0.264575	0.345463	0.301653	0.488439	0.388217
0.112271	0.610199	0.489258	0.607613	0.347082	0.255131	0.337855	0.294848	0.478829	0.394341
0.109621	0.623109	0.504943	0.612814	0.345657	0.245836	0.330235	0.288224	0.469473	0.400595
0.106976	0.635759	0.520671	0.618310	0.344786	0.236708	0.322624	0.281784	0.460386	0.406982
0.104338	0.648121	0.536432	0.624121	0.344431	0.227764	0.315041	0.275528	0.451579	0.413501
0.101712	0.660167	0.552215	0.630269	0.344548	0.219022	0.307502	0.269454	0.443059	0.420144
0.099101	0.671869	0.568011	0.636778	0.345093	0.210500	0.300025	0.263562	0.434829	0.426900
0.096511	0.683201	0.583815	0.643675	0.346014	0.202209	0.292620	0.257856	0.426891	0.433754
0.093946	0.694143	0.599620	0.650984	0.347258	0.194163	0.285294	0.252341	0.419239	0.440685
0.091411	0.704679	0.615422	0.658726	0.348770	0.186368	0.278052	0.247028	0.411868	0.447669
0.088912	0.714793	0.631218	0.666914	0.350493	0.178829	0.270894	0.241931	0.404772	0.454676
0.086453	0.724470	0.646999	0.675552	0.352365	0.171551	0.263816	0.237060	0.397948	0.461669
0.084039	0.733689	0.662753	0.684636	0.354330	0.164533	0.256813	0.232430	0.391396	0.468603
0.081675	0.742427	0.678461	0.694150	0.356333	0.157777	0.249875	0.228051	0.385115	0.475430
0.079368	0.750662	0.694099	0.704071	0.358322	0.151283	0.242994	0.223940	0.379106	0.482098
0.077121	0.758385	0.709641	0.714369	0.360250	0.145051	0.236161	0.220109	0.373372	0.488556
0.074941	0.765596	0.725060	0.725008	0.362068	0.139084	0.229365	0.216571	0.367916	0.494759
0.072831	0.772315	0.740334	0.735943	0.363725	0.133382	0.222602	0.213338	0.362746	0.500668
0.070795	0.778571	0.755442	0.747128	0.365171	0.127949	0.215869	0.210421	0.357865	0.506247
0.068835	0.784409	0.770365	0.758509	0.366363	0.122786	0.209167	0.207834	0.353273	0.511462
0.066954	0.789871	0.785087	0.770029	0.367268	0.117899	0.202499	0.205587	0.348965	0.516279
0.065153	0.795000	0.799586	0.781628	0.367863	0.113287	0.195871	0.203688	0.344934	0.520670
0.063431	0.799831	0.813836	0.793252	0.368133	0.108952	0.189287	0.202146	0.341169	0.524619
0.061792	0.804389	0.827803	0.804858	0.368068	0.104894	0.182753	0.200963	0.337658	0.528119
0.060234	0.808693	0.841452	0.816418	0.367660	0.101110	0.176278	0.200141	0.334390	0.531176
0.058759	0.812761	0.854747	0.827914	0.366901	0.097599	0.169872	0.199681	0.331349	0.533805
0.057368	0.816611	0.867657	0.839334	0.365792	0.094355	0.163549	0.199581	0.328515	0.536030
0.056062	0.820264	0.880154	0.850665	0.364341	0.091374	0.157319	0.199840	0.325869	0.537879
0.054842	0.823745	0.892213	0.861887	0.362565	0.088650	0.151193	0.200456	0.323391	0.539378
0.053709	0.827081	0.903811	0.872969	0.360482	0.086175	0.145180	0.201427	0.321067	0.540556
0.052664	0.830294	0.914924	0.883870	0.358110	0.083942	0.139286	0.202752	0.318885	0.541447
0.051709	0.833403	0.925530	0.894540	0.355467	0.081940	0.133518	0.204430	0.316840	0.542091
0.050843	0.836414	0.935605	0.904922	0.352570	0.080160	0.127879	0.206457	0.314926	0.542537
0.050068	0.839329	0.945122	0.914950	0.349436	0.078590	0.122370	0.208832	0.313141	0.542838
0.049384	0.842137	0.954045	0.924558	0.346080	0.077220	0.116992	0.211551	0.311487	0.543057
0.048792	0.844826	0.962332	0.933685	0.342515	0.076037	0.111746	0.214613	0.309971	0.543256
0.048292	0.847379	0.969927	0.942283	0.338757	0.075030	0.106632	0.218016	0.308605	0.543496
0.047882	0.849780	0.976771	0.950321	0.334820	0.074187	0.101650	0.221757	0.307410	0.543834
0.047562	0.852010	0.982805	0.957785	0.330719	0.073498	0.096803	0.225829	0.306411	0.544320
0.047328	0.854056	0.987976	0.964675	0.326467	0.072950	0.092091	0.230226	0.305635	0.545004
0.047179	0.855905	0.992246	0.970989	0.322078	0.072532	0.087516	0.234940	0.305112	0.545928
0.047111	0.857545	0.995592	0.976725	0.317569	0.072231	0.083083	0.239964	0.304871	0.547135
0.047119	0.858968	0.998003	0.981872	0.312958	0.072035	0.078793	0.245293	0.304942	0.548661
0.047200	0.860159	0.999474	0.986415	0.308265	0.071930	0.074652	0.250925	0.305359	0.550542
0.047348	0.861104	1.000000	0.990340	0.303508	0.071902	0.070660	0.256860	0.306152	0.552807
0.047558	0.861777	0.999569	0.993632	0.298705	0.071938	0.066822	0.263106	0.307355	0.555480
0.047826	0.862154	0.998171	0.996272	0.293872	0.072024	0.063138	0.269668	0.309001	0.558581
0.048148	0.862210	0.995801	0.998233	0.289027	0.072149	0.059611	0.276555	0.311118	0.562130
0.048522	0.861931	0.992462	0.999485	0.284181	0.072305	0.056239	0.283770	0.313735	0.566143
0.048946	0.861318	0.988155	1.000000	0.279347	0.072481	0.053023	0.291314	0.316874	0.570637
0.049418	0.860388	0.982878	0.999753	0.274533	0.072673	0.049963	0.299186	0.320556	0.575622
0.049934	0.859173	0.976626	0.998719	0.269749	0.072874	0.047057	0.307382	0.324797	0.581107
0.050492	0.857709	0.969392	0.996869	0.265001	0.073082	0.044304	0.315893	0.329608	0.587091
0.051089	0.856038	0.961179	0.994177	0.260295	0.073291	0.041703	0.324709	0.334995	0.593567
0.051722	0.854194	0.952000	0.990630	0.255634	0.073498	0.039252	0.333820	0.340962	0.600518
0.052388	0.852207	0.941878	0.986238	0.251020	0.073702	0.036949	0.343209	0.347508	0.607921
0.053082	0.850107	0.930841	0.981035	0.246453	0.073899	0.034793	0.352858	0.354629	0.615743
0.053803	0.847920	0.918914	0.975071	0.241930	0.074088	0.032784	0.362752	0.362315	0.623946
0.054546	0.845668	0.906120	0.968408	0.237445	0.074268	0.030918	0.372870	0.370554	0.632481
0.055306	0.843368	0.892487	0.961106	0.232993	0.074437	0.029195	0.383195	0.379330	0.641298
0.056083	0.841032	0.878051	0.953226	0.228570	0.074593	0.027612	0.393708	0.388620	0.650345
0.056871	0.838676	0.862870	0.944817	0.224174	0.074735	0.026170	0.404389	0.398399	0.659570
0.057667	0.836318	0.847015	0.935926	0.219808	0.074863	0.024865	0.415226	0.408636	0.668921
0.058468	0.833981	0.830577	0.926596	0.215474	0.074979	0.023697	0.426205	0.419298	0.678345
0.059270	0.831683	0.813653	0.916876	0.211177	0.075081	0.022664	0.437317	0.430350	0.687784
0.060071	0.829441	0.796344	0.906822	0.206922	0.075171	0.021764	0.448546	0.441758	0.697174
0.060869	0.827261	0.778750	0.896493	0.202717	0.075248	0.020997	0.459874	0.453483	0.706442
0.061661	0.825151	0.760961	0.885947	0.198572	0.075314	0.020360	0.471276	0.465488	0.715510
0.062447	0.823117	0.743062	0.875234	0.194499	0.075370	0.019853	0.482728	0.477733	0.724296
0.063224	0.821168	0.725124	0.864397	0.190509	0.075419	0.019475	0.494210	0.490177	0.732717
0.063993	0.819320	0.707215	0.853473	0.186614	0.075466	0.019226	0.505707	0.502776	0.740692
0.064753	0.817595	0.689395	0.842496	0.182822	0.075516	0.019108	0.517213	0.515481	0.748140
0.065505	0.816017	0.671723	0.831501	0.179138	0.075576	0.019122	0.528729	0.528238	0.754984
0.066250	0.814616	0.654260	0.820520	0.175568	0.075651	0.019271	0.540256	0.540989	0.761162
0.066989	0.813420	0.637063	0.809582	0.172112	0.075748	0.019558	0.551792	0.553672	0.766629
0.067725	0.812457	0.620190	0.798708	0.168772	0.075874	0.019985	0.563328	0.566221	0.771356
0.068458	0.811761	0.603692	0.787919	0.165547	0.076036	0.020557	0.574849	0.578566	0.775319
0.069191	0.811363	0.587614	0.777237	0.162435	0.076243	0.021275	0.586339	0.590632	0.778497
0.069921	0.811297	0.571994	0.766684	0.159433	0.076502	0.022144	0.597780	0.602345	0.780865
0.070650	0.811592	0.556863	0.756284	0.156539	0.076820	0.023164	0.609167	0.613631	0.782399
0.071375	0.812268	0.542248	0.746056	0.153752	0.077203	0.024339	0.620511	0.624418	0.783094
0.072096	0.813331	0.528166	0.736015	0.151069	0.077657	0.025672	0.631835	0.634637	0.782967
0.072810	0.814780	0.514632	0.726167	0.148492	0.078185	0.027163	0.643178	0.644218	0.782058
0.073515	0.816599	0.501655	0.716514	0.146019	0.078793	0.028815	0.654581	0.653096	0.780420
0.074209	0.818761	0.489245	0.707054	0.143651	0.079485	0.030630	0.666084	0.661216	0.778108
0.074890	0.821227	0.477409	0.697793	0.141387	0.080266	0.032608	0.677726	0.668530	0.775171
0.075556	0.823950	0.466150	0.688743	0.139227	0.081139	0.034752	0.689536	0.674996	0.771650
0.076205	0.826870	0.455472	0.679920	0.137169	0.082108	0.037062	0.701535	0.680589	0.767589
0.076835	0.829918	0.445373	0.671346	0.135212	0.083176	0.039541	0.713735	0.685299	0.763031
0.077446	0.833014	0.435845	0.663040	0.133351	0.084347	0.042190	0.726146	0.689132	0.758027
0.078036	0.836068	0.426880	0.655018	0.131583	0.085624	0.045012	0.738768	0.692097	0.752635
0.078604	0.838981	0.418461	0.647292	0.129903	0.087010	0.048007	0.751600	0.694215	0.746917
0.079151	0.841650	0.410570	0.639877	0.128302	0.088510	0.051179	0.764634	0.695516	0.740935
0.079676	0.843969	0.403187	0.632788	0.126774	0.090127	0.054529	0.777856	0.696047	0.734755
0.080182	0.845836	0.396294	0.626040	0.125312	0.091866	0.058059	0.791247	0.695862	0.728436
0.080667	0.847152	0.389873	0.619649	0.123907	0.093733	0.061769	0.804777	0.695019	0.722034
0.081134	0.847823	0.383907	0.613635	0.122551	0.095734	0.065660	0.818410	0.693572	0.715599
0.081582	0.847764	0.378383	0.608020	0.121236	0.097873	0.069733	0.832103	0.691572	0.709174
0.082011	0.846903	0.373289	0.602830	0.119954	0.100157	0.073986	0.845811	0.689067	0.702797
0.082420	0.845182	0.368612	0.598085	0.118694	0.102591	0.078417	0.859475	0.686103	0.696499
0.082807	0.842559	0.364336	0.593803	0.117448	0.105180	0.083024	0.873033	0.682725	0.690304
0.083171	0.839012	0.360445	0.589994	0.116208	0.107927	0.087801	0.886406	0.678981	0.684234
0.083509	0.834536	0.356922	0.586664	0.114965	0.110834	0.092744	0.899514	0.674916	0.678306
0.083820	0.829128	0.353754	0.583813	0.113715	0.113901	0.097846	0.912266	0.670574	0.672540
0.084102	0.822791	0.350927	0.581431	0.112452	0.117127	0.103099	0.924570	0.665992	0.666950
0.084353	0.815520	0.348428	0.579502	0.111173	0.120510	0.108495	0.936327	0.661202	0.661549
0.084573	0.807309	0.346242	0.578003	0.109876	0.124043	0.114026	0.947428	0.656231	0.656342
0.084758	0.798158	0.344357	0.576906	0.108559	0.127721	0.119684	0.957757	0.651100	0.651332
0.084908	0.788078	0.342758	0.576179	0.107223	0.131537	0.125458	0.967194	0.645828	0.646519
0.085021	0.777095	0.341434	0.575796	0.105866	0.135478	0.131342	0.975617	0.640431	0.641900
0.085096	0.765255	0.340382	0.575737	0.104486	0.139535	0.137324	0.982918	0.634920	0.637472
0.085131	0.752619	0.339599	0.575997	0.103080	0.143695	0.143397	0.989005	0.629309	0.633230
0.085127	0.739264	0.339090	0.576569	0.101645	0.147944	0.149548	0.993806	0.623608	0.629166
0.085083	0.725281	0.338862	0.577450	0.100177	0.152267	0.155767	0.997267	0.617824	0.625274
0.085000	0.710766	0.338923	0.578631	0.098673	0.156652	0.162040	0.999343	0.611957	0.621545
0.084877	0.695818	0.339281	0.580097	0.097132	0.161083	0.168352	0.999997	0.606002	0.617965
0.084714	0.680535	0.339944	0.581834	0.095552	0.165547	0.174687	0.999197	0.599952	0.614518
0.084511	0.665013	0.340916	0.583829	0.093937	0.170031	0.181025	0.996937	0.593804	0.611182
0.084265	0.649341	0.342199	0.586068	0.092289	0.174521	0.187347	0.993245	0.587564	0.607931
0.083976	0.633600	0.343789	0.588543	0.090616	0.179004	0.193630	0.988186	0.581248	0.604741
0.083639	0.617863	0.345677	0.591242	0.088925	0.183468	0.199854	0.981858	0.574878	0.601586
0.083251	0.602195	0.347852	0.594157	0.087223	0.187901	0.205998	0.974377	0.568472	0.598440
0.082809	0.586654	0.350294	0.597278	0.085516	0.192294	0.212045	0.965873	0.562051	0.595270
0.082310	0.571289	0.352983	0.600590	0.083813	0.196638	0.217981	0.956471	0.555631	0.592041
0.081751	0.556145	0.355894	0.604076	0.082119	0.200925	0.223791	0.946288	0.549230	0.588716
0.081131	0.541258	0.358998	0.607709	0.080438	0.205149	0.229467	0.935431	0.542862	0.585273
0.080450	0.526662	0.362261	0.611457	0.078776	0.209299	0.234996	0.923996	0.536541	0.581706
0.079708	0.512387	0.365646	0.615279	0.077136	0.213367	0.240367	0.912073	0.530280	0.578029
0.078905	0.498460	0.369115	0.619129	0.075521	0.217340	0.245570	0.899749	0.524097	0.574262
0.078043	0.484907	0.372627	0.622955	0.073934	0.221202	0.250591	0.887108	0.518012	0.570428
0.077123	0.471753	0.376143	0.626699	0.072376	0.224937	0.255415	0.874232	0.512048	0.566548
0.076146	0.459018	0.379624	0.630306	0.070849	0.228531	0.260023	0.861202	0.506234	0.562646
0.075113	0.446721	0.383033	0.633718	0.069354	0.231967	0.264396	0.848094	0.500607	0.558748
0.074028	0.434879	0.386333	0.636886	0.067890	0.235235	0.268512	0.834983	0.495208	0.554878
0.072891	0.423507	0.389489	0.639772	0.066459	0.238325	0.272350	0.821936	0.490081	0.551055
0.071704	0.412614	0.392466	0.642345	0.065061	0.241233	0.275893	0.809015	0.485269	0.547290
0.070470	0.402208	0.395233	0.644584	0.063696	0.243958	0.279128	0.796272	0.480810	0.543588
0.069189	0.392294	0.397759	0.646467	0.062364	0.246501	0.282051	0.783753	0.476744	0.539953
0.067862	0.382873	0.400018	0.647972	0.061066	0.248867	0.284660	0.771490	0.473104	0.536382
0.066490	0.373948	0.401985	0.649084	0.059804	0.251061	0.286962	0.759513	0.469918	0.532882
0.065073	0.365516	0.403637	0.649797	0.058578	0.253090	0.288964	0.747844	0.467209	0.529462
0.063610	0.357578	0.404952	0.650122	0.057390	0.254961	0.290681	0.736501	0.464994	0.526145
0.062101	0.350129	0.405909	0.650079	0.056244	0.256680	0.292122	0.725502	0.463284	0.522955
0.060549	0.343168	0.406480	0.649702	0.055143	0.258253	0.293300	0.714861	0.462086	0.519925
0.058955	0.336688	0.406639	0.649025	0.054091	0.259681	0.294223	0.704592	0.461400	0.517087
0.057324	0.330682	0.406358	0.648078	0.053093	0.260965	0.294898	0.694708	0.461219	0.514475
0.055662	0.325140	0.405614	0.646889	0.052151	0.262102	0.295333	0.685217	0.461535	0.512121
0.053977	0.320046	0.404393	0.645474	0.051269	0.263087	0.295535	0.676118	0.462331	0.510060
0.052277	0.315381	0.402693	0.643845	0.050451	0.263915	0.295515	0.667412	0.463590	0.508320
0.050573	0.311124	0.400518	0.642005	0.049700	0.264584	0.295284	0.659095	0.465292	0.506933
0.048875	0.307248	0.397884	0.639956	0.049020	0.265089	0.294854	0.651166	0.467424	0.505923
0.047195	0.303724	0.394808	0.637696	0.048414	0.265430	0.294238	0.643626	0.469977	0.505314
0.045546	0.300520	0.391315	0.635224	0.047885	0.265609	0.293449	0.636480	0.472952	0.505122
0.043937	0.297601	0.387424	0.632540	0.047434	0.265627	0.292503	0.629733	0.476352	0.505361
0.042378	0.294930	0.383156	0.629646	0.047065	0.265492	0.291414	0.623394	0.480178	0.506036
0.040881	0.292472	0.378526	0.626543	0.046779	0.265212	0.290200	0.617466	0.484428	0.507152
0.039455	0.290193	0.373553	0.623226	0.046576	0.264799	0.288877	0.611950	0.489094	0.508711
0.038110	0.288065	0.368255	0.619690	0.046457	0.264265	0.287463	0.606835	0.494164	0.510716
0.036855	0.286062	0.362657	0.615925	0.046423	0.263622	0.285971	0.602108	0.499618	0.513175
0.035702	0.284162	0.356789	0.611920	0.046472	0.262881	0.284413	0.597749	0.505432	0.516097
0.034659	0.282344	0.350677	0.607664	0.046604	0.262053	0.282800	0.593734	0.511575	0.519498
0.033740	0.280587	0.344351	0.603146	0.046817	0.261144	0.281137	0.590037	0.518009	0.523394
0.032954	0.278871	0.337838	0.598351	0.047108	0.260160	0.279427	0.586627	0.524693	0.527803
0.032315	0.277175	0.331164	0.593256	0.047474	0.259102	0.277670	0.583475	0.531580	0.532736
0.031834	0.275477	0.324356	0.587834	0.047913	0.257969	0.275863	0.580557	0.538623	0.538202
0.031525	0.273754	0.317441	0.582051	0.048419	0.256758	0.274002	0.577851	0.545779	0.544204
0.031401	0.271981	0.310442	0.575865	0.048989	0.255467	0.272081	0.575336	0.553010	0.550737
0.031474	0.270133	0.303376	0.569234	0.049618	0.254089	0.270098	0.572989	0.560275	0.557792
0.031758	0.268187	0.296257	0.562112	0.050300	0.252622	0.268052	0.570782	0.567533	0.565352
0.032264	0.266123	0.289099	0.554466	0.051028	0.251059	0.265944	0.568686	0.574741	0.573396
0.033005	0.263924	0.281909	0.546278	0.051796	0.249396	0.263777	0.566674	0.581850	0.581892
0.033993	0.261577	0.274699	0.537548	0.052595	0.247629	0.261554	0.564717	0.588805	0.590807
0.035239	0.259077	0.267481	0.528294	0.053416	0.245756	0.259280	0.562782	0.595554	0.600102
0.036754	0.256421	0.260268	0.518542	0.054252	0.243780	0.256958	0.560836	0.602048	0.609737
0.038548	0.253613	0.253075	0.508323	0.055093	0.241703	0.254592	0.558844	0.608254	0.619662
0.040632	0.250660	0.245919	0.497666	0.055929	0.239533	0.252183	0.556778	0.614153	0.629825
0.043016	0.247568	0.238814	0.486596	0.056751	0.237275	0.249730	0.554612	0.619737	0.640166
0.045710	0.244345	0.231773	0.475140	0.057548	0.234937	0.247227	0.552325	0.624999	0.650626
0.048724	0.240995	0.224807	0.463329	0.058311	0.232525	0.244669	0.549901	0.629934	0.661142
0.052068	0.237522	0.217925	0.451202	0.059031	0.230049	0.242052	0.547326	0.634536	0.671649
0.055753	0.233934	0.211133	0.438805	0.059699	0.227519	0.239374	0.544587	0.638796	0.682082
0.059790	0.230235	0.204437	0.426187	0.060306	0.224946	0.236640	0.541671	0.642715	0.692370
0.064187	0.226434	0.197841	0.413399	0.060843	0.222341	0.233859	0.538560	0.646311	0.702448
0.068955	0.222540	0.191347	0.400488	0.061306	0.219715	0.231042	0.535240	0.649628	0.712264
0.074104	0.218562	0.184956	0.387499	0.061689	0.217079	0.228203	0.531706	0.652726	0.721784
0.079644	0.214513	0.178670	0.374473	0.061990	0.214448	0.225350	0.527967	0.655675	0.730987
0.085585	0.210405	0.172488	0.361447	0.062209	0.211834	0.222498	0.524047	0.658544	0.739856
0.091935	0.206255	0.166411	0.348460	0.062347	0.209250	0.219664	0.519989	0.661397	0.748374
0.098701	0.202077	0.160441	0.335547	0.062406	0.206705	0.216869	0.515845	0.664294	0.756521
0.105891	0.197889	0.154580	0.322744	0.062385	0.204210	0.214136	0.511671	0.667291	0.764277
0.113509	0.193708	0.148833	0.310084	0.062286	0.201772	0.211492	0.507520	0.670447	0.771634
0.121561	0.189549	0.143202	0.297598	0.062110	0.199401	0.208958	0.503444	0.673823	0.778604
0.130052	0.185427	0.137691	0.285313	0.061859	0.197107	0.206557	0.499491	0.677483	0.785218
0.138989	0.181353	0.132304	0.273252	0.061537	0.194898	0.204307	0.495708	0.681495	0.791524
0.148379	0.177338	0.127040	0.261435	0.061147	0.192788	0.202228	0.492142	0.685926	0.797577
0.158231	0.173392	0.121901	0.249877	0.060694	0.190787	0.200337	0.488842	0.690836	0.803435
0.168552	0.169521	0.116886	0.238590	0.060182	0.188909	0.198651	0.485853	0.696277	0.809155
0.179347	0.165729	0.111995	0.227586	0.059618	0.187169	0.197188	0.483217	0.702291	0.814801
0.190622	0.162023	0.107229	0.216872	0.059008	0.185580	0.195965	0.480972	0.708913	0.820442
0.202380	0.158410	0.102587	0.206455	0.058356	0.184158	0.194995	0.479154	0.716167	0.826148
0.214623	0.154897	0.098073	0.196341	0.057671	0.182918	0.194292	0.477790	0.724070	0.831986
0.227355	0.151496	0.093686	0.186532	0.056957	0.181873	0.193870	0.476902	0.732629	0.838015
0.240576	0.148222	0.089428	0.177034	0.056223	0.181037	0.193740	0.476504	0.741846	0.844289
0.254285	0.145089	0.085303	0.167846	0.055473	0.180421	0.193911	0.476606	0.751713	0.850848
0.268480	0.142112	0.081311	0.158972	0.054714	0.180036	0.194395	0.477210	0.762209	0.857722
0.283155	0.139305	0.077455	0.150412	0.053951	0.179894	0.195196	0.478312	0.773308	0.864929
0.298300	0.136681	0.073736	0.142169	0.053188	0.180004	0.196323	0.479901	0.784968	0.872473
0.313904	0.134250	0.070156	0.134243	0.052429	0.180376	0.197776	0.481961	0.797140	0.880344
0.329950	0.132023	0.066716	0.126637	0.051678	0.181018	0.199556	0.484468	0.809764	0.888521
0.346418	0.130008	0.063414	0.119352	0.050939	0.181939	0.201660	0.487392	0.822769	0.896966
0.363284	0.128210	0.060252	0.112389	0.050215	0.183142	0.204084	0.490702	0.836076	0.905630
0.380522	0.126633	0.057226	0.105749	0.049507	0.184634	0.206821	0.494362	0.849597	0.914452
0.398099	0.125281	0.054335	0.099430	0.048817	0.186416	0.209864	0.498336	0.863237	0.923358
0.415977	0.124153	0.051575	0.093432	0.048147	0.188488	0.213202	0.502588	0.876895	0.932265
0.434115	0.123250	0.048942	0.087751	0.047496	0.190850	0.216826	0.507080	0.890457	0.941081
0.452466	0.122569	0.046433	0.082384	0.046864	0.193496	0.220721	0.511774	0.903802	0.949704
0.470982	0.122105	0.044043	0.077325	0.046251	0.196419	0.224874	0.516633	0.916800	0.958025
0.489612	0.121853	0.041768	0.072567	0.045655	0.199610	0.229265	0.521616	0.929316	0.965928
0.508304	0.121807	0.039603	0.068105	0.045075	0.203055	0.233875	0.526679	0.941214	0.973284
0.527009	0.121957	0.037544	0.063931	0.044508	0.206740	0.238679	0.531774	0.952362	0.979966
0.545679	0.122296	0.035588	0.060036	0.043954	0.210647	0.243652	0.536845	0.962632	0.985849
0.564269	0.122812	0.033731	0.056414	0.043411	0.214755	0.248765	0.541832	0.971899	0.990822
0.582735	0.123493	0.031970	0.053054	0.042876	0.219044	0.253988	0.546672	0.980037	0.994791
0.601039	0.124325	0.030301	0.049948	0.042348	0.223487	0.259291	0.551295	0.986922	0.997682
0.619138	0.125292	0.028722	0.047086	0.041826	0.228059	0.264641	0.555631	0.992442	0.999433
0.636989	0.126377	0.027229	0.044458	0.041309	0.232730	0.270005	0.559609	0.996504	0.999992
0.654541	0.127562	0.025820	0.042052	0.040794	0.237470	0.275351	0.563163	0.999043	0.999313
0.671736	0.128828	0.024492	0.039858	0.040284	0.242244	0.280644	0.566240	1.000018	0.997370
0.688511	0.130153	0.023242	0.037863	0.039777	0.247017	0.285851	0.568799	0.999403	0.994157
0.704797	0.131517	0.022068	0.036056	0.039277	0.251753	0.290932	0.570820	0.997180	0.989685
0.720528	0.132898	0.020966	0.034423	0.038783	0.256415	0.295853	0.572294	0.993334	0.983975
0.735641	0.134278	0.019933	0.032953	0.038298	0.260967	0.300581	0.573222	0.987857	0.977060
0.750079	0.135641	0.018965	0.031632	0.037826	0.265371	0.305089	0.573605	0.980767	0.968972
0.763797	0.136971	0.018060	0.030448	0.037371	0.269592	0.309359	0.573445	0.972106	0.959743
0.776761	0.138254	0.017215	0.029389	0.036940	0.273597	0.313378	0.572739	0.961936	0.949409
0.788951	0.139474	0.016427	0.028443	0.036538	0.277360	0.317137	0.571493	0.950332	0.938020
0.800362	0.140617	0.015693	0.027600	0.036174	0.280861	0.320630	0.569717	0.937373	0.925630
0.811001	0.141670	0.015012	0.026851	0.035855	0.284088	0.323849	0.567424	0.923140	0.912294
0.820884	0.142623	0.014381	0.026187	0.035587	0.287034	0.326786	0.564630	0.907708	0.898065
0.830031	0.143466	0.013797	0.025601	0.035377	0.289697	0.329433	0.561347	0.891154	0.882990
0.838459	0.144195	0.013259	0.025086	0.035231	0.292081	0.331777	0.557585	0.873548	0.867120
0.846178	0.144806	0.012764	0.024635	0.035155	0.294190	0.333812	0.553352	0.854956	0.850508
0.853199	0.145302	0.012309	0.024242	0.035155	0.296026	0.335535	0.548658	0.835451	0.833206
0.859534	0.145685	0.011894	0.023902	0.035237	0.297595	0.336959	0.543508	0.815123	0.815269
0.865210	0.145962	0.011514	0.023610	0.035405	0.298905	0.338102	0.537913	0.794074	0.796741
0.870268	0.146139	0.011169	0.023361	0.035666	0.299963	0.338997	0.531894	0.772414	0.777661
0.874768	0.146222	0.010856	0.023149	0.036024	0.300779	0.339672	0.525478	0.750249	0.758063
0.878782	0.146217	0.010573	0.022968	0.036486	0.301367	0.340160	0.518700	0.727679	0.737979
0.882396	0.146129	0.010319	0.022816	0.037055	0.301741	0.340484	0.511594	0.704792	0.717452
0.885695	0.145959	0.010091	0.022685	0.037738	0.301922	0.340669	0.504194	0.681669	0.696535
0.888767	0.145713	0.009889	0.022573	0.038540	0.301936	0.340733	0.496531	0.658383	0.675291
0.891694	0.145393	0.009711	0.022474	0.039465	0.301809	0.340692	0.488636	0.635004	0.653791
0.894548	0.145008	0.009556	0.022385	0.040521	0.301571	0.340560	0.480537	0.611593	0.632104
0.897391	0.144566	0.009421	0.022304	0.041710	0.301250	0.340345	0.472260	0.588209	0.610300
0.900276	0.144078	0.009307	0.022228	0.043039	0.300868	0.340056	0.463837	0.564905	0.588447
0.903248	0.143559	0.009211	0.022158	0.044513	0.300445	0.339700	0.455308	0.541733	0.566618
0.906342	0.143024	0.009132	0.022094	0.046138	0.299997	0.339288	0.446722	0.518743	0.544883
0.909593	0.142490	0.009069	0.022036	0.047920	0.299539	0.338832	0.438127	0.495987	0.523310
0.913027	0.141972	0.009021	0.021984	0.049865	0.299082	0.338345	0.429570	0.473514	0.501960
0.916669	0.141488	0.008988	0.021938	0.051980	0.298634	0.337843	0.421093	0.451369	0.480890
0.920535	0.141050	0.008967	0.021899	0.054272	0.298206	0.337335	0.412731	0.429591	0.460149
0.924635	0.140672	0.008958	0.021866	0.056746	0.297808	0.336831	0.404518	0.408212	0.439777
0.928964	0.140367	0.008960	0.021839	0.059408	0.297452	0.336339	0.396478	0.387264	0.419811
0.933506	0.140145	0.008973	0.021818	0.062266	0.297147	0.335867	0.388633	0.366774	0.400280
0.938234	0.140017	0.008995	0.021802	0.065325	0.296900	0.335422	0.380998	0.346773	0.381208
0.943112	0.139990	0.009026	0.021790	0.068591	0.296714	0.335010	0.373583	0.327286	0.362617
0.948098	0.140071	0.009064	0.021783	0.072069	0.296589	0.334631	0.366389	0.308336	0.344526
0.953144	0.140264	0.009109	0.021781	0.075766	0.296527	0.334287	0.359417	0.289945	0.326949
0.958202	0.140573	0.009160	0.021782	0.079687	0.296526	0.333978	0.352660	0.272128	0.309897
0.963224	0.140998	0.009216	0.021787	0.083836	0.296585	0.333709	0.346108	0.254898	0.293378
0.968162	0.141540	0.009275	0.021795	0.088216	0.296699	0.333487	0.339747	0.238264	0.277396
0.972966	0.142196	0.009338	0.021804	0.092831	0.296859	0.333320	0.333558	0.222234	0.261956
0.977586	0.142962	0.009404	0.021814	0.097681	0.297054	0.333217	0.327520	0.206809	0.247059
0.981965	0.143833	0.009471	0.021824	0.102767	0.297271	0.333186	0.321609	0.191991	0.232708
0.986040	0.144804	0.009541	0.021832	0.108086	0.297492	0.333230	0.315797	0.177778	0.218905
0.989737	0.145867	0.009611	0.021837	0.113638	0.297702	0.333351	0.310057	0.164166	0.205650
0.992980	0.147013	0.009682	0.021839	0.119419	0.297887	0.333547	0.304357	0.151152	0.192940
0.995701	0.148233	0.009754	0.021836	0.125423	0.298034	0.333818	0.298664	0.138730	0.180772
0.997845	0.149518	0.009826	0.021828	0.131646	0.298134	0.334163	0.292945	0.126893	0.169140
0.999378	0.150860	0.009897	0.021814	0.138078	0.298177	0.334587	0.287164	0.115636	0.158037
1.000290	0.152252	0.009969	0.021796	0.144713	0.298158	0.335096	0.281283	0.104950	0.147454
1.000587	0.153687	0.010040	0.021773	0.151540	0.298071	0.335697	0.275268	0.094827	0.137381
1.000293	0.155161	0.010112	0.021746	0.158547	0.297915	0.336396	0.269079	0.085256	0.127807
0.999437	0.156667	0.010184	0.021715	0.165721	0.297685	0.337200	0.262686	0.076226	0.118719
0.998052	0.158201	0.010257	0.021681	0.173048	0.297377	0.338111	0.256071	0.067724	0.110106
0.996165	0.159757	0.010329	0.021644	0.180508	0.296987	0.339128	0.249231	0.059736	0.101956
0.993789	0.161332	0.010402	0.021606	0.188083	0.296508	0.340250	0.242176	0.052248	0.094258
0.990931	0.162923	0.010474	0.021565	0.195748	0.295931	0.341473	0.234925	0.045245	0.087000
0.987586	0.164529	0.010546	0.021523	0.203479	0.295253	0.342788	0.227500	0.038711	0.080170
0.983746	0.166147	0.010618	0.021480	0.211245	0.294474	0.344187	0.219924	0.032631	0.073757
0.979399	0.167779	0.010692	0.021437	0.219016	0.293596	0.345662	0.212226	0.026987	0.067748
0.974538	0.169422	0.010767	0.021393	0.226758	0.292628	0.347204	0.204435	0.021763	0.062131
0.969164	0.171072	0.010844	0.021350	0.234434	0.291580	0.348801	0.196580	0.016943	0.056892
0.963284	0.172726	0.010924	0.021309	0.242004	0.290459	0.350442	0.188692	0.012510	0.052018
0.956920	0.174379	0.011008	0.021269	0.249429	0.289274	0.352110	0.180803	0.008447	0.047497
0.950104	0.176024	0.011095	0.021230	0.256670	0.288029	0.353789	0.172943	0.004738	0.043315
0.942878	0.177657	0.011187	0.021193	0.263693	0.286730	0.355463	0.165142	0.001366	0.039458
0.935299	0.179271	0.011284	0.021157	0.270463	0.285378	0.357120	0.157432	-0.001686	0.035913
0.927430	0.180862	0.011386	0.021122	0.276948	0.283978	0.358751	0.149841	-0.004433	0.032665
0.919336	0.182422	0.011494	0.021087	0.283116	0.282533	0.360350	0.142398	-0.006892	0.029700
0.911079	0.183947	0.011606	0.021054	0.288943	0.281050	0.361913	0.135129	-0.009079	0.027001
0.902712	0.185429	0.011724	0.021022	0.294412	0.279537	0.363441	0.128060	-0.011008	0.024554
0.894284	0.186866	0.011847	0.020993	0.299517	0.278006	0.364934	0.121215	-0.012694	0.022344
0.885840	0.188255	0.011975	0.020968	0.304257	0.276464	0.366391	0.114615	-0.014154	0.020354
0.877424	0.189592	0.012109	0.020947	0.308631	0.274918	0.367808	0.108279	-0.015399	0.018568
0.869078	0.190877	0.012247	0.020932	0.312642	0.273375	0.369183	0.102228	-0.016444	0.016974
0.860843	0.192108	0.012391	0.020922	0.316292	0.271838	0.370508	0.096476	-0.017303	0.015555
0.852762	0.193281	0.012539	0.020918	0.319587	0.270311	0.371778	0.091040	-0.017987	0.014299
0.844878	0.194393	0.012692	0.020920	0.322530	0.268796	0.372985	0.085935	-0.018510	0.013193
0.837237	0.195439	0.012850	0.020926	0.325125	0.267299	0.374117	0.081171	-0.018882	0.012225
0.829889	0.196416	0.013011	0.020938	0.327380	0.265823	0.375160	0.076762	-0.019114	0.011385
0.822884	0.197321	0.013176	0.020955	0.329300	0.264371	0.376093	0.072716	-0.019218	0.010663
0.816269	0.198152	0.013343	0.020977	0.330890	0.262947	0.376899	0.069044	-0.019203	0.010051
0.810083	0.198911	0.013512	0.021005	0.332158	0.261551	0.377561	0.065753	-0.019077	0.009541
0.804358	0.199600	0.013683	0.021038	0.333115	0.260181	0.378071	0.062850	-0.018851	0.009126
0.799119	0.200221	0.013855	0.021078	0.333777	0.258833	0.378421	0.060342	-0.018531	0.008797
0.794386	0.200776	0.014027	0.021126	0.334165	0.257499	0.378604	0.058235	-0.018126	0.008549
0.790174	0.201267	0.014199	0.021181	0.334297	0.256170	0.378609	0.056534	-0.017642	0.008375
0.786494	0.201694	0.014371	0.021244	0.334195	0.254835	0.378423	0.055245	-0.017086	0.008267
0.783349	0.202056	0.014541	0.021316	0.333873	0.253482	0.378024	0.054373	-0.016466	0.008220
0.780740	0.202354	0.014709	0.021395	0.333348	0.252093	0.377392	0.053920	-0.015788	0.008226
0.778658	0.202594	0.014875	0.021483	0.332636	0.250652	0.376501	0.053893	-0.015057	0.008280
0.777095	0.202783	0.015036	0.021577	0.331753	0.249136	0.375328	0.054292	-0.014279	0.008377
0.776034	0.202933	0.015193	0.021679	0.330717	0.247525	0.373845	0.055121	-0.013460	0.008513
0.775455	0.203057	0.015344	0.021787	0.329544	0.245793	0.372027	0.056382	-0.012603	0.008685
0.775328	0.203170	0.015488	0.021902	0.328248	0.243923	0.369845	0.058074	-0.011714	0.008889
0.775615	0.203287	0.015625	0.022022	0.326845	0.241899	0.367270	0.060200	-0.010797	0.009122
0.776269	0.203422	0.015754	0.022146	0.325352	0.239714	0.364273	0.062758	-0.009856	0.009381
0.777238	0.203589	0.015874	0.022274	0.323787	0.237367	0.360836	0.065748	-0.008894	0.009666
0.778468	0.203799	0.015986	0.022405	0.322164	0.234860	0.356952	0.069170	-0.007916	0.009974
0.779907	0.204059	0.016088	0.022536	0.320494	0.232201	0.352631	0.073021	-0.006924	0.010305
0.781504	0.204378	0.016182	0.022668	0.318785	0.229397	0.347894	0.077300	-0.005922	0.010657
0.783214	0.204762	0.016265	0.022799	0.317042	0.226456	0.342771	0.082004	-0.004912	0.011029
0.784993	0.205215	0.016339	0.022929	0.315268	0.223384	0.337297	0.087131	-0.003899	0.011422
0.786801	0.205746	0.016402	0.023056	0.313465	0.220183	0.331503	0.092677	-0.002883	0.011835
0.788596	0.206361	0.016455	0.023181	0.311636	0.216856	0.325417	0.098638	-0.001868	0.012267
0.790332	0.207071	0.016496	0.023303	0.309783	0.213404	0.319065	0.105008	-0.000855	0.012718
0.791956	0.207888	0.016527	0.023422	0.307912	0.209827	0.312471	0.111779	0.000154	0.013186
0.793410	0.208827	0.016547	0.023539	0.306032	0.206128	0.305660	0.118945	0.001159	0.013672
0.794638	0.209903	0.016556	0.023654	0.304154	0.202309	0.298657	0.126494	0.002158	0.014174
0.795593	0.211137	0.016555	0.023768	0.302289	0.198374	0.291485	0.134417	0.003151	0.014691
0.796239	0.212549	0.016544	0.023881	0.300452	0.194328	0.284171	0.142699	0.004137	0.015222
0.796555	0.214161	0.016525	0.023993	0.298660	0.190178	0.276736	0.151329	0.005117	0.015767
0.796537	0.215994	0.016499	0.024105	0.296931	0.185930	0.269205	0.160290	0.006088	0.016324
0.796191	0.218069	0.016466	0.024216	0.295285	0.181595	0.261600	0.169568	0.007052	0.016892
0.795527	0.220406	0.016427	0.024326	0.293737	0.177183	0.253944	0.179145	0.008009	0.017470
0.794558	0.223021	0.016384	0.024435	0.292300	0.172706	0.246259	0.189005	0.008959	0.018058
0.793288	0.225931	0.016338	0.024542	0.290981	0.168178	0.238567	0.199129	0.009902	0.018654
0.791716	0.229147	0.016289	0.024646	0.289783	0.163612	0.230890	0.209497	0.010839	0.019257
0.789842	0.232681	0.016238	0.024747	0.288706	0.159023	0.223251	0.220091	0.011769	0.019866
0.787665	0.236540	0.016187	0.024844	0.287746	0.154421	0.215670	0.230888	0.012693	0.020480
0.785197	0.240732	0.016135	0.024936	0.286896	0.149819	0.208166	0.241868	0.013612	0.021095
0.782453	0.245264	0.016083	0.025024	0.286150	0.145223	0.200760	0.253008	0.014526	0.021711
0.779462	0.250142	0.016032	0.025107	0.285499	0.140643	0.193466	0.264284	0.015436	0.022326
0.776254	0.255372	0.015982	0.025186	0.284938	0.136084	0.186302	0.275671	0.016342	0.022937
0.772860	0.260954	0.015933	0.025261	0.284458	0.131552	0.179278	0.287142	0.017243	0.023543
0.769307	0.266892	0.015884	0.025335	0.284050	0.127053	0.172407	0.298669	0.018141	0.024142
0.765613	0.273183	0.015836	0.025407	0.283703	0.122592	0.165698	0.310220	0.019035	0.024733
0.761791	0.279828	0.015788	0.025481	0.283406	0.118175	0.159158	0.321760	0.019924	0.025317
0.757852	0.286824	0.015740	0.025558	0.283151	0.113809	0.152791	0.333251	0.020809	0.025891
0.753802	0.294173	0.015692	0.025640	0.282932	0.109501	0.146599	0.344652	0.021688	0.026458
0.749642	0.301875	0.015642	0.025728	0.282752	0.105258	0.140585	0.355916	0.022563	0.027018
0.745368	0.309934	0.015592	0.025825	0.282610	0.101087	0.134749	0.366994	0.023433	0.027570
0.740970	0.318353	0.015540	0.025931	0.282511	0.096994	0.129089	0.377833	0.024297	0.028117
0.736438	0.327137	0.015485	0.026048	0.282456	0.092985	0.123605	0.388382	0.025154	0.028658
0.731764	0.336290	0.015428	0.026175	0.282453	0.089067	0.118294	0.398590	0.026004	0.029194
0.726943	0.345816	0.015368	0.026314	0.282511	0.085245	0.113152	0.408413	0.026846	0.029725
0.721979	0.355718	0.015307	0.026465	0.282642	0.081524	0.108176	0.417807	0.027678	0.030250
0.716874	0.365997	0.015246	0.026626	0.282856	0.077907	0.103361	0.426737	0.028497	0.030770
0.711633	0.376650	0.015187	0.026798	0.283163	0.074400	0.098704	0.435171	0.029303	0.031284
0.706253	0.387671	0.015129	0.026980	0.283568	0.071005	0.094201	0.443076	0.030093	0.031794
0.700726	0.399048	0.015076	0.027170	0.284080	0.067724	0.089848	0.450417	0.030864	0.032301
0.695038	0.410763	0.015027	0.027367	0.284705	0.064560	0.085645	0.457157	0.031613	0.032806
0.689173	0.422794	0.014984	0.027570	0.285454	0.061513	0.081590	0.463252	0.032339	0.033313
0.683118	0.435117	0.014949	0.027779	0.286340	0.058584	0.077683	0.468659	0.033037	0.033824
0.676869	0.447706	0.014921	0.027990	0.287377	0.055773	0.073924	0.473336	0.033705	0.034344
0.670434	0.460538	0.014902	0.028204	0.288580	0.053079	0.070314	0.477245	0.034340	0.034877
0.663836	0.473591	0.014892	0.028418	0.289960	0.050501	0.066853	0.480350	0.034940	0.035427
0.657112	0.486851	0.014891	0.028630	0.291527	0.048036	0.063540	0.482614	0.035501	0.035996
0.650309	0.500305	0.014901	0.028839	0.293292	0.045682	0.060374	0.484001	0.036023	0.036588
0.643481	0.513943	0.014919	0.029042	0.295267	0.043435	0.057353	0.484481	0.036501	0.037206
0.636682	0.527758	0.014947	0.029237	0.297467	0.041292	0.054472	0.484034	0.036936	0.037855
0.629962	0.541738	0.014985	0.029422	0.299906	0.039249	0.051729	0.482655	0.037325	0.038536
0.623365	0.555872	0.015031	0.029595	0.302599	0.037301	0.049119	0.480356	0.037668	0.039253
0.616926	0.570150	0.015086	0.029755	0.305565	0.035445	0.046636	0.477166	0.037965	0.040008
0.610674	0.584563	0.015148	0.029899	0.308823	0.033677	0.044276	0.473132	0.038220	0.040802
0.604635	0.599098	0.015218	0.030027	0.312393	0.031993	0.042033	0.468307	0.038434	0.041638
0.598832	0.613743	0.015294	0.030139	0.316297	0.030389	0.039903	0.462746	0.038611	0.042516
0.593289	0.628485	0.015375	0.030233	0.320558	0.028863	0.037882	0.456501	0.038751	0.043436
0.588028	0.643315	0.015460	0.030309	0.325200	0.027411	0.035966	0.449619	0.038858	0.044398
0.583070	0.658228	0.015548	0.030368	0.330247	0.026032	0.034153	0.442148	0.038935	0.045403
0.578437	0.673227	0.015637	0.030407	0.335717	0.024722	0.032441	0.434129	0.038984	0.046449
0.574144	0.688321	0.015728	0.030426	0.341624	0.023480	0.030827	0.425607	0.039011	0.047536
0.570205	0.703521	0.015817	0.030424	0.347980	0.022302	0.029311	0.416621	0.039018	0.048662
0.566629	0.718841	0.015905	0.030399	0.354793	0.021187	0.027891	0.407215	0.039009	0.049826
0.563417	0.734288	0.015991	0.030350	0.362070	0.020133	0.026566	0.397432	0.038988	0.051025
0.560565	0.749863	0.016073	0.030275	0.369814	0.019136	0.025335	0.387315	0.038958	0.052258
0.558064	0.765563	0.016150	0.030176	0.378032	0.018196	0.024197	0.376909	0.038922	0.053521
0.555901	0.781383	0.016224	0.030051	0.386725	0.017310	0.023149	0.366259	0.038881	0.054812
0.554061	0.797323	0.016292	0.029900	0.395890	0.016475	0.022192	0.355411	0.038839	0.056128
0.552527	0.813381	0.016355	0.029725	0.405523	0.015689	0.021322	0.344411	0.038797	0.057466
0.551284	0.829555	0.016413	0.029526	0.415617	0.014950	0.020538	0.333303	0.038757	0.058822
0.550317	0.845835	0.016465	0.029304	0.426162	0.014255	0.019838	0.322131	0.038719	0.060192
0.549613	0.862201	0.016512	0.029061	0.437148	0.013601	0.019220	0.310937	0.038686	0.061571
0.549160	0.878623	0.016552	0.028797	0.448562	0.012988	0.018683	0.299762	0.038656	0.062954
0.548943	0.895061	0.016585	0.028514	0.460386	0.012413	0.018225	0.288643	0.038632	0.064336
0.548945	0.911471	0.016611	0.028213	0.472598	0.011876	0.017846	0.277616	0.038612	0.065709
0.549144	0.927800	0.016628	0.027895	0.485167	0.011375	0.017543	0.266711	0.038596	0.067069
0.549512	0.943989	0.016635	0.027562	0.498059	0.010911	0.017317	0.255958	0.038583	0.068408
0.550021	0.959969	0.016632	0.027214	0.511233	0.010483	0.017166	0.245381	0.038571	0.069723
0.550638	0.975663	0.016618	0.026854	0.524644	0.010090	0.017088	0.235001	0.038560	0.071009
0.551338	0.990987	0.016591	0.026483	0.538239	0.009732	0.017081	0.224834	0.038547	0.072263
0.552101	1.005855	0.016552	0.026101	0.551961	0.009408	0.017144	0.214896	0.038532	0.073484
0.552916	1.020176	0.016500	0.025709	0.565750	0.009120	0.017275	0.205196	0.038513	0.074671
0.553776	1.033852	0.016434	0.025308	0.579552	0.008864	0.017471	0.195744	0.038492	0.075826
0.554679	1.046784	0.016355	0.024901	0.593321	0.008643	0.017731	0.186546	0.038466	0.076947
0.555623	1.058882	0.016264	0.024487	0.607020	0.008454	0.018053	0.177606	0.038437	0.078036
0.556605	1.070072	0.016161	0.024068	0.620617	0.008298	0.018434	0.168927	0.038404	0.079093
0.557618	1.080298	0.016047	0.023647	0.634082	0.008174	0.018875	0.160512	0.038368	0.080115
0.558650	1.089522	0.015923	0.023225	0.647387	0.008083	0.019374	0.152362	0.038329	0.081101
0.559686	1.097718	0.015790	0.022805	0.660516	0.008022	0.019929	0.144479	0.038286	0.082047
0.560710	1.104859	0.015648	0.022387	0.673465	0.007993	0.020540	0.136863	0.038241	0.082950
0.561710	1.110917	0.015498	0.021975	0.686241	0.007995	0.021205	0.129516	0.038193	0.083807
0.562676	1.115861	0.015340	0.021571	0.698859	0.008027	0.021923	0.122439	0.038140	0.084614
0.563603	1.119669	0.015174	0.021177	0.711338	0.008088	0.022693	0.115635	0.038084	0.085371
0.564486	1.122337	0.015001	0.020795	0.723694	0.008178	0.023513	0.109103	0.038025	0.086078
0.565322	1.123882	0.014820	0.020428	0.735947	0.008296	0.024382	0.102845	0.037963	0.086735
0.566102	1.124344	0.014632	0.020078	0.748122	0.008441	0.025297	0.096862	0.037899	0.087347
0.566815	1.123784	0.014437	0.019746	0.760241	0.008612	0.026257	0.091153	0.037834	0.087917
0.567447	1.122278	0.014234	0.019434	0.772324	0.008808	0.027259	0.085719	0.037771	0.088449
0.567989	1.119913	0.014024	0.019142	0.784380	0.009028	0.028300	0.080558	0.037709	0.088948
0.568432	1.116776	0.013809	0.018873	0.796410	0.009271	0.029377	0.075667	0.037649	0.089419
0.568773	1.112948	0.013588	0.018626	0.808409	0.009536	0.030487	0.071044	0.037593	0.089866
0.569009	1.108500	0.013362	0.018402	0.820361	0.009820	0.031626	0.066685	0.037540	0.090293
0.569139	1.103485	0.013131	0.018202	0.832248	0.010124	0.032791	0.062583	0.037490	0.090703
0.569160	1.097944	0.012898	0.018027	0.844038	0.010445	0.033977	0.058734	0.037442	0.091098
0.569065	1.091902	0.012662	0.017877	0.855695	0.010781	0.035182	0.055130	0.037395	0.091478
0.568841	1.085375	0.012424	0.017754	0.867172	0.011133	0.036402	0.051765	0.037349	0.091844
0.568470	1.078367	0.012186	0.017659	0.878418	0.011497	0.037632	0.048631	0.037301	0.092194
0.567933	1.070879	0.011948	0.017592	0.889385	0.011873	0.038871	0.045719	0.037250	0.092526
0.567210	1.062907	0.011711	0.017556	0.900022	0.012258	0.040114	0.043019	0.037192	0.092835
0.566284	1.054452	0.011476	0.017552	0.910274	0.012652	0.041361	0.040523	0.037128	0.093117
0.565141	1.045526	0.011243	0.017580	0.920080	0.013055	0.042610	0.038219	0.037053	0.093366
0.563769	1.036149	0.011013	0.017642	0.929377	0.013465	0.043862	0.036097	0.036967	0.093575
0.562159	1.026357	0.010787	0.017738	0.938099	0.013884	0.045115	0.034147	0.036868	0.093736
0.560298	1.016198	0.010565	0.017870	0.946182	0.014312	0.046371	0.032356	0.036753	0.093840
0.558167	1.005734	0.010348	0.018038	0.953558	0.014751	0.047631	0.030713	0.036621	0.093879
0.555746	0.995039	0.010136	0.018242	0.960160	0.015201	0.048894	0.029206	0.036469	0.093848
0.553009	0.984185	0.009930	0.018484	0.965929	0.015664	0.050161	0.027822	0.036294	0.093739
0.549932	0.973237	0.009730	0.018763	0.970820	0.016140	0.051430	0.026551	0.036095	0.093550
0.546492	0.962252	0.009537	0.019079	0.974804	0.016631	0.052701	0.025382	0.035871	0.093277
0.542670	0.951279	0.009350	0.019431	0.977857	0.017137	0.053972	0.024308	0.035621	0.092921
0.538449	0.940367	0.009171	0.019821	0.979975	0.017660	0.055241	0.023321	0.035346	0.092480
0.533818	0.929567	0.009000	0.020247	0.981183	0.018201	0.056507	0.022415	0.035046	0.091956
0.528765	0.918935	0.008838	0.020708	0.981533	0.018760	0.057768	0.021586	0.034724	0.091351
0.523277	0.908528	0.008684	0.021206	0.981095	0.019339	0.059023	0.020830	0.034380	0.090667
0.517338	0.898402	0.008539	0.021738	0.979938	0.019939	0.060270	0.020142	0.034017	0.089903
0.510926	0.888604	0.008403	0.022304	0.978130	0.020562	0.061507	0.019519	0.033635	0.089059
0.504021	0.879172	0.008277	0.022903	0.975740	0.021209	0.062733	0.018957	0.033235	0.088136
0.496608	0.870134	0.008161	0.023535	0.972833	0.021881	0.063948	0.018451	0.032819	0.087133
0.488680	0.861510	0.008053	0.024199	0.969468	0.022579	0.065151	0.017999	0.032387	0.086051
0.480242	0.853314	0.007956	0.024895	0.965692	0.023303	0.066341	0.017597	0.031942	0.084893
0.471315	0.845554	0.007868	0.025623	0.961546	0.024056	0.067518	0.017242	0.031485	0.083663
0.461924	0.838234	0.007789	0.026381	0.957058	0.024835	0.068682	0.016931	0.031020	0.082370
0.452102	0.831358	0.007720	0.027170	0.952247	0.025642	0.069831	0.016662	0.030548	0.081020
0.441881	0.824927	0.007659	0.027987	0.947122	0.026476	0.070967	0.016434	0.030073	0.079623
0.431290	0.818942	0.007608	0.028833	0.941682	0.027337	0.072090	0.016243	0.029597	0.078186
0.420355	0.813398	0.007565	0.029705	0.935914	0.028225	0.073198	0.016087	0.029123	0.076719
0.409098	0.808286	0.007531	0.030603	0.929798	0.029140	0.074293	0.015965	0.028652	0.075230
0.397549	0.803589	0.007505	0.031524	0.923312	0.030083	0.075373	0.015873	0.028186	0.073727
0.385739	0.799285	0.007487	0.032465	0.916433	0.031054	0.076435	0.015808	0.027726	0.072217
0.373713	0.795352	0.007477	0.033425	0.909136	0.032053	0.077478	0.015770	0.027274	0.070705
0.361522	0.791762	0.007475	0.034400	0.901396	0.033082	0.078496	0.015754	0.026832	0.069199
0.349218	0.788483	0.007480	0.035387	0.893199	0.034141	0.079487	0.015759	0.026401	0.067705
0.336855	0.785480	0.007492	0.036385	0.884545	0.035231	0.080446	0.015783	0.025982	0.066229
0.324483	0.782722	0.007512	0.037388	0.875451	0.036353	0.081370	0.015822	0.025578	0.064778
0.312147	0.780181	0.007537	0.038393	0.865946	0.037510	0.082254	0.015875	0.025190	0.063358
0.299892	0.777831	0.007569	0.039395	0.856067	0.038703	0.083094	0.015939	0.024818	0.061976
0.287760	0.775645	0.007607	0.040391	0.845870	0.039934	0.083886	0.016013	0.024464	0.060638
0.275789	0.773591	0.007649	0.041373	0.835423	0.041204	0.084626	0.016095	0.024128	0.059350
0.264014	0.771629	0.007697	0.042336	0.824798	0.042514	0.085311	0.016183	0.023811	0.058116
0.252466	0.769713	0.007750	0.043275	0.814064	0.043866	0.085938	0.016277	0.023512	0.056942
0.241172	0.767797	0.007806	0.044186	0.803293	0.045261	0.086505	0.016376	0.023234	0.055833
0.230157	0.765841	0.007867	0.045063	0.792560	0.046699	0.087011	0.016481	0.022975	0.054793
0.219440	0.763816	0.007932	0.045904	0.781940	0.048181	0.087454	0.016590	0.022737	0.053827
0.209040	0.761705	0.008000	0.046705	0.771506	0.049706	0.087835	0.016704	0.022520	0.052938
0.198971	0.759502	0.008072	0.047464	0.761328	0.051274	0.088152	0.016823	0.022324	0.052131
0.189246	0.757209	0.008147	0.048180	0.751474	0.052882	0.088406	0.016946	0.022148	0.051409
0.179874	0.754838	0.008225	0.048850	0.742007	0.054529	0.088596	0.017073	0.021993	0.050777
0.170866	0.752401	0.008305	0.049471	0.732986	0.056212	0.088719	0.017203	0.021856	0.050236
0.162228	0.749915	0.008388	0.050042	0.724467	0.057928	0.088773	0.017337	0.021739	0.049788
0.153966	0.747394	0.008472	0.050559	0.716502	0.059675	0.088756	0.017472	0.021639	0.049436
0.146086	0.744850	0.008558	0.051019	0.709145	0.061448	0.088664	0.017610	0.021556	0.049180
0.138592	0.742291	0.008644	0.051419	0.702439	0.063243	0.088497	0.017750	0.021490	0.049019
0.131487	0.739734	0.008731	0.051759	0.696422	0.065057	0.088254	0.017892	0.021439	0.048954
0.124776	0.737210	0.008818	0.052037	0.691122	0.066886	0.087936	0.018036	0.021404	0.048983
0.118461	0.734761	0.008905	0.052253	0.686559	0.068724	0.087546	0.018184	0.021383	0.049106
0.112544	0.732438	0.008992	0.052410	0.682745	0.070568	0.087088	0.018335	0.021376	0.049319
0.107026	0.730293	0.009080	0.052510	0.679687	0.072414	0.086565	0.018491	0.021382	0.049623
0.101909	0.728370	0.009169	0.052554	0.677387	0.074257	0.085984	0.018650	0.021398	0.050016
0.097193	0.726705	0.009257	0.052547	0.675842	0.076094	0.085348	0.018814	0.021425	0.050498
0.092878	0.725329	0.009346	0.052492	0.675042	0.077920	0.084663	0.018981	0.021461	0.051067
0.088964	0.724266	0.009435	0.052391	0.674970	0.079731	0.083932	0.019152	0.021505	0.051722
0.085449	0.723546	0.009525	0.052248	0.675598	0.081523	0.083159	0.019326	0.021556	0.052463
0.082333	0.723199	0.009616	0.052064	0.676889	0.083290	0.082348	0.019504	0.021613	0.053287
0.079613	0.723260	0.009709	0.051842	0.678799	0.085029	0.081499	0.019685	0.021674	0.054193
0.077286	0.723761	0.009804	0.051582	0.681277	0.086732	0.080615	0.019869	0.021738	0.055178
0.075348	0.724731	0.009902	0.051286	0.684276	0.088395	0.079696	0.020055	0.021804	0.056239
0.073795	0.726199	0.010003	0.050954	0.687751	0.090010	0.078741	0.020243	0.021870	0.057375
0.072620	0.728201	0.010107	0.050585	0.691668	0.091574	0.077750	0.020433	0.021934	0.058583
0.071817	0.730784	0.010215	0.050182	0.696002	0.093082	0.076720	0.020625	0.021994	0.059860
0.071378	0.733997	0.010326	0.049746	0.700731	0.094533	0.075652	0.020816	0.022050	0.061206
0.071294	0.737894	0.010441	0.049278	0.705834	0.095926	0.074546	0.021009	0.022099	0.062618
0.071555	0.742518	0.010559	0.048782	0.711289	0.097264	0.073401	0.021201	0.022140	0.064092
0.072151	0.747911	0.010679	0.048260	0.717078	0.098551	0.072220	0.021394	0.022170	0.065625
0.073071	0.754107	0.010803	0.047716	0.723185	0.099792	0.071005	0.021585	0.022188	0.067214
0.074305	0.761138	0.010929	0.047153	0.729606	0.100991	0.069759	0.021774	0.022191	0.068852
0.075842	0.769030	0.011057	0.046574	0.736336	0.102154	0.068487	0.021960	0.022177	0.070537
0.077669	0.777803	0.011187	0.045982	0.743372	0.103285	0.067193	0.022142	0.022144	0.072262
0.079776	0.787470	0.011319	0.045381	0.750702	0.104388	0.065883	0.022319	0.022090	0.074021
0.082151	0.798044	0.011454	0.044771	0.758311	0.105464	0.064561	0.022490	0.022014	0.075808
0.084784	0.809537	0.011591	0.044155	0.766178	0.106516	0.063233	0.022654	0.021913	0.077616
0.087663	0.821960	0.011731	0.043535	0.774285	0.107546	0.061902	0.022810	0.021786	0.079437
0.090777	0.835322	0.011874	0.042912	0.782605	0.108555	0.060571	0.022958	0.021632	0.081260
0.094115	0.849624	0.012019	0.042289	0.791109	0.109546	0.059243	0.023098	0.021448	0.083077
0.097665	0.864857	0.012166	0.041667	0.799760	0.110519	0.057920	0.023228	0.021234	0.084877
0.101416	0.881004	0.012315	0.041047	0.808511	0.111478	0.056605	0.023350	0.020987	0.086648
0.105357	0.898034	0.012467	0.040432	0.817311	0.112425	0.055299	0.023463	0.020706	0.088382
0.109476	0.915911	0.012621	0.039822	0.826103	0.113366	0.054006	0.023565	0.020392	0.090069
0.113762	0.934590	0.012776	0.039221	0.834832	0.114304	0.052729	0.023658	0.020043	0.091700
0.118202	0.954014	0.012933	0.038629	0.843447	0.115245	0.051470	0.023740	0.019662	0.093269
0.122782	0.974122	0.013089	0.038049	0.851906	0.116193	0.050233	0.023812	0.019250	0.094768
0.127488	0.994839	0.013246	0.037484	0.860170	0.117152	0.049019	0.023876	0.018810	0.096193
0.132303	1.016087	0.013403	0.036934	0.868195	0.118124	0.047831	0.023931	0.018345	0.097537
0.137211	1.037772	0.013559	0.036402	0.875939	0.119110	0.046668	0.023980	0.017856	0.098793
0.142190	1.059790	0.013714	0.035889	0.883358	0.120110	0.045532	0.024023	0.017347	0.099955
0.147220	1.082024	0.013869	0.035395	0.890412	0.121126	0.044421	0.024063	0.016819	0.101019
0.152277	1.104345	0.014023	0.034921	0.897061	0.122156	0.043336	0.024098	0.016277	0.101981
0.157336	1.126611	0.014177	0.034469	0.903257	0.123198	0.042276	0.024132	0.015724	0.102839
0.162371	1.148676	0.014330	0.034038	0.908953	0.124249	0.041238	0.024165	0.015162	0.103596
0.167354	1.170400	0.014481	0.033629	0.914105	0.125305	0.040221	0.024197	0.014596	0.104253
0.172258	1.191656	0.014630	0.033242	0.918682	0.126359	0.039225	0.024230	0.014030	0.104815
0.177054	1.212343	0.014776	0.032875	0.922667	0.127405	0.038247	0.024265	0.013469	0.105288
0.181713	1.232374	0.014918	0.032530	0.926049	0.128435	0.037287	0.024303	0.012917	0.105678
0.186209	1.251667	0.015056	0.032203	0.928818	0.129442	0.036344	0.024343	0.012380	0.105990
0.190514	1.270140	0.015187	0.031895	0.930963	0.130420	0.035416	0.024388	0.011861	0.106230
0.194602	1.287721	0.015312	0.031604	0.932482	0.131362	0.034502	0.024436	0.011368	0.106400
0.198449	1.304357	0.015429	0.031330	0.933388	0.132261	0.033602	0.024488	0.010904	0.106503
0.202030	1.320013	0.015539	0.031070	0.933715	0.133110	0.032716	0.024545	0.010474	0.106541
0.205325	1.334679	0.015641	0.030825	0.933516	0.133904	0.031844	0.024606	0.010084	0.106517
0.208314	1.348354	0.015734	0.030594	0.932850	0.134636	0.030985	0.024670	0.009738	0.106433
0.210982	1.361049	0.015820	0.030376	0.931777	0.135296	0.030139	0.024738	0.009442	0.106291
0.213315	1.372776	0.015899	0.030172	0.930345	0.135877	0.029306	0.024810	0.009199	0.106092
0.215299	1.383543	0.015970	0.029981	0.928598	0.136367	0.028484	0.024885	0.009014	0.105839
0.216923	1.393353	0.016035	0.029803	0.926573	0.136758	0.027674	0.024962	0.008893	0.105532
0.218176	1.402196	0.016092	0.029639	0.924305	0.137044	0.026875	0.025041	0.008840	0.105173
0.219051	1.410049	0.016142	0.029487	0.921824	0.137217	0.026087	0.025122	0.008860	0.104764
0.219542	1.416879	0.016184	0.029347	0.919153	0.137276	0.025309	0.025203	0.008958	0.104308
0.219649	1.422655	0.016219	0.029220	0.916306	0.137220	0.024543	0.025284	0.009140	0.103809
0.219382	1.427350	0.016245	0.029104	0.913295	0.137050	0.023787	0.025368	0.009410	0.103272
0.218757	1.430951	0.016263	0.029002	0.910127	0.136770	0.023043	0.025453	0.009773	0.102701
0.217792	1.433453	0.016272	0.028914	0.906818	0.136385	0.022312	0.025541	0.010234	0.102100
0.216510	1.434867	0.016273	0.028842	0.903394	0.135900	0.021594	0.025632	0.010798	0.101473
0.214927	1.435216	0.016267	0.028787	0.899888	0.135320	0.020891	0.025727	0.011470	0.100822
0.213063	1.434530	0.016253	0.028751	0.896335	0.134650	0.020205	0.025826	0.012255	0.100148
0.210934	1.432837	0.016234	0.028737	0.892766	0.133893	0.019538	0.025928	0.013159	0.099452
0.208555	1.430161	0.016210	0.028745	0.889204	0.133054	0.018890	0.026035	0.014186	0.098737
0.205945	1.426527	0.016183	0.028779	0.885670	0.132138	0.018265	0.026144	0.015343	0.098004
0.203121	1.421978	0.016153	0.028839	0.882176	0.131153	0.017662	0.026256	0.016634	0.097256
0.200106	1.416580	0.016122	0.028927	0.878729	0.130103	0.017085	0.026370	0.018066	0.096496
0.196923	1.410415	0.016090	0.029045	0.875324	0.128996	0.016535	0.026485	0.019644	0.095730
0.193596	1.403580	0.016057	0.029197	0.871949	0.127837	0.016013	0.026602	0.021373	0.094961
0.190150	1.396166	0.016024	0.029383	0.868585	0.126633	0.015523	0.026718	0.023259	0.094196
0.186607	1.388256	0.015991	0.029605	0.865218	0.125387	0.015065	0.026833	0.025308	0.093439
0.182990	1.379922	0.015958	0.029867	0.861840	0.124104	0.014641	0.026946	0.027526	0.092693
0.179320	1.371236	0.015925	0.030170	0.858456	0.122788	0.014254	0.027055	0.029917	0.091962
0.175618	1.362272	0.015892	0.030516	0.855079	0.121440	0.013904	0.027158	0.032486	0.091247
0.171907	1.353113	0.015861	0.030905	0.851720	0.120064	0.013594	0.027253	0.035238	0.090548
0.168205	1.343850	0.015832	0.031339	0.848383	0.118663	0.013325	0.027338	0.038177	0.089865
0.164532	1.334572	0.015805	0.031819	0.845063	0.117237	0.013099	0.027409	0.041307	0.089195
0.160905	1.325365	0.015782	0.032345	0.841745	0.115790	0.012918	0.027466	0.044631	0.088536
0.157341	1.316304	0.015763	0.032918	0.838406	0.114323	0.012785	0.027506	0.048152	0.087883
0.153857	1.307447	0.015748	0.033538	0.835019	0.112837	0.012701	0.027527	0.051874	0.087230
0.150470	1.298836	0.015738	0.034204	0.831561	0.111335	0.012669	0.027529	0.055799	0.086571
0.147197	1.290497	0.015733	0.034918	0.828015	0.109817	0.012690	0.027510	0.059931	0.085900
0.144052	1.282440	0.015733	0.035678	0.824378	0.108281	0.012766	0.027468	0.064272	0.085210
0.141049	1.274658	0.015740	0.036486	0.820650	0.106728	0.012899	0.027402	0.068824	0.084497
0.138201	1.267128	0.015753	0.037340	0.816832	0.105156	0.013090	0.027310	0.073591	0.083754
0.135517	1.259814	0.015772	0.038242	0.812921	0.103565	0.013341	0.027192	0.078574	0.082980
0.133007	1.252667	0.015800	0.039189	0.808911	0.101957	0.013652	0.027046	0.083777	0.082169
0.130676	1.245637	0.015834	0.040183	0.804799	0.100331	0.014026	0.026873	0.089202	0.081322
0.128529	1.238675	0.015877	0.041223	0.800577	0.098689	0.014462	0.026675	0.094852	0.080434
0.126569	1.231739	0.015928	0.042309	0.796238	0.097033	0.014962	0.026451	0.100729	0.079505
0.124797	1.224792	0.015987	0.043439	0.791771	0.095363	0.015527	0.026203	0.106834	0.078532
0.123214	1.217805	0.016054	0.044613	0.787169	0.093682	0.016159	0.025932	0.113169	0.077513
0.121818	1.210754	0.016130	0.045831	0.782423	0.091991	0.016859	0.025639	0.119734	0.076446
0.120607	1.203621	0.016214	0.047092	0.777529	0.090292	0.017627	0.025326	0.126529	0.075327
0.119577	1.196388	0.016308	0.048398	0.772488	0.088587	0.018467	0.024993	0.133553	0.074155
0.118723	1.189033	0.016412	0.049748	0.767311	0.086876	0.019380	0.024642	0.140803	0.072929
0.118040	1.181519	0.016527	0.051145	0.762009	0.085159	0.020367	0.024274	0.148275	0.071649
0.117520	1.173800	0.016655	0.052588	0.756590	0.083435	0.021431	0.023891	0.155961	0.070318
0.117155	1.165817	0.016797	0.054080	0.751053	0.081703	0.022573	0.023494	0.163855	0.068937
0.116935	1.157511	0.016953	0.055621	0.745391	0.079959	0.023795	0.023087	0.171946	0.067511
0.116848	1.148834	0.017125	0.057210	0.739586	0.078203	0.025100	0.022670	0.180222	0.066043
0.116881	1.139754	0.017313	0.058846	0.733616	0.076433	0.026487	0.022245	0.188669	0.064538
0.117018	1.130259	0.017518	0.060530	0.727456	0.074649	0.027958	0.021814	0.197272	0.063001
0.117244	1.120351	0.017740	0.062257	0.721086	0.072850	0.029514	0.021377	0.206017	0.061436
0.117540	1.110043	0.017979	0.064025	0.714488	0.071038	0.031156	0.020937	0.214885	0.059849
0.117892	1.099353	0.018237	0.065833	0.707648	0.069212	0.032882	0.020494	0.223861	0.058242
0.118286	1.088300	0.018513	0.067678	0.700551	0.067375	0.034693	0.020049	0.232926	0.056621
0.118711	1.076899	0.018809	0.069557	0.693179	0.065527	0.036587	0.019605	0.242063	0.054989
0.119163	1.065154	0.019125	0.071470	0.685520	0.063669	0.038562	0.019162	0.251255	0.053350
0.119637	1.053057	0.019464	0.073415	0.677568	0.061802	0.040618	0.018721	0.260483	0.051712
0.120133	1.040587	0.019827	0.075394	0.669324	0.059925	0.042751	0.018286	0.269730	0.050078
0.120650	1.027710	0.020218	0.077408	0.660793	0.058040	0.044959	0.017855	0.278977	0.048456
0.121187	1.014383	0.020637	0.079457	0.651984	0.056148	0.047238	0.017430	0.288205	0.046851
0.121744	1.000551	0.021090	0.081543	0.642913	0.054251	0.049583	0.017013	0.297395	0.045269
0.122319	0.986148	0.021578	0.083669	0.633602	0.052354	0.051991	0.016604	0.306529	0.043715
0.122911	0.971107	0.022104	0.085838	0.624070	0.050459	0.054455	0.016204	0.315585	0.042193
0.123518	0.955369	0.022670	0.088052	0.614335	0.048572	0.056970	0.015814	0.324540	0.040707
0.124137	0.938895	0.023281	0.090313	0.604412	0.046696	0.059530	0.015436	0.333369	0.039260
0.124771	0.921668	0.023938	0.092624	0.594311	0.044835	0.062127	0.015069	0.342040	0.037854
0.125424	0.903702	0.024644	0.094985	0.584041	0.042991	0.064754	0.014715	0.350520	0.036492
0.126101	0.885031	0.025404	0.097397	0.573605	0.041168	0.067403	0.014374	0.358773	0.035175
0.126812	0.865706	0.026221	0.099861	0.563003	0.039367	0.070065	0.014046	0.366762	0.033905
0.127565	0.845788	0.027099	0.102375	0.552233	0.037591	0.072729	0.013730	0.374449	0.032683
0.128371	0.825335	0.028045	0.104936	0.541294	0.035840	0.075386	0.013428	0.381801	0.031509
0.129237	0.804409	0.029064	0.107541	0.530190	0.034116	0.078026	0.013138	0.388785	0.030385
0.130172	0.783078	0.030160	0.110188	0.518934	0.032418	0.080640	0.012859	0.395376	0.029310
0.131183	0.761423	0.031340	0.112875	0.507540	0.030748	0.083219	0.012592	0.401553	0.028284
0.132274	0.739536	0.032609	0.115603	0.496028	0.029103	0.085755	0.012335	0.407300	0.027309
0.133450	0.717521	0.033970	0.118374	0.484420	0.027484	0.088243	0.012087	0.412611	0.026385
0.134715	0.695489	0.035429	0.121193	0.472742	0.025889	0.090678	0.011848	0.417483	0.025512
0.136070	0.673550	0.036989	0.124065	0.461025	0.024318	0.093061	0.011617	0.421921	0.024690
0.137515	0.651809	0.038654	0.126999	0.449292	0.022770	0.095389	0.011393	0.425928	0.023920
0.139050	0.630366	0.040427	0.130004	0.437567	0.021243	0.097664	0.011177	0.429510	0.023203
0.140672	0.609309	0.042310	0.133089	0.425864	0.019737	0.099884	0.010967	0.432676	0.022539
0.142378	0.588721	0.044305	0.136265	0.414196	0.018254	0.102049	0.010763	0.435438	0.021928
0.144162	0.568675	0.046415	0.139537	0.402569	0.016794	0.104160	0.010566	0.437809	0.021370
0.146019	0.549236	0.048639	0.142914	0.390982	0.015358	0.106216	0.010373	0.439807	0.020864
0.147943	0.530462	0.050978	0.146400	0.379434	0.013948	0.108216	0.010185	0.441447	0.020411
0.149926	0.512405	0.053432	0.150001	0.367917	0.012565	0.110160	0.010000	0.442748	0.020007
0.151960	0.495109	0.056001	0.153724	0.356428	0.011213	0.112048	0.009817	0.443729	0.019654
0.154034	0.478613	0.058683	0.157574	0.344966	0.009891	0.113877	0.009636	0.444408	0.019348
0.156136	0.462950	0.061477	0.161559	0.333535	0.008602	0.115646	0.009455	0.444802	0.019089
0.158254	0.448146	0.064380	0.165687	0.322139	0.007347	0.117355	0.009274	0.444928	0.018874
0.160375	0.434222	0.067389	0.169965	0.310787	0.006127	0.119001	0.009090	0.444800	0.018701
0.162483	0.421190	0.070501	0.174399	0.299494	0.004943	0.120583	0.008903	0.444433	0.018568
0.164564	0.409060	0.073711	0.178996	0.288277	0.003797	0.122100	0.008713	0.443834	0.018472
0.166601	0.397832	0.077015	0.183760	0.277159	0.002690	0.123550	0.008519	0.443011	0.018411
0.168576	0.387501	0.080405	0.188692	0.266160	0.001623	0.124932	0.008322	0.441965	0.018382
0.170475	0.378057	0.083875	0.193791	0.255301	0.000598	0.126245	0.008123	0.440695	0.018381
0.172282	0.369483	0.087418	0.199053	0.244603	-0.000384	0.127488	0.007921	0.439193	0.018405
0.173988	0.361759	0.091025	0.204473	0.234083	-0.001319	0.128660	0.007717	0.437447	0.018450
0.175581	0.354860	0.094687	0.210042	0.223758	-0.002206	0.129762	0.007513	0.435438	0.018514
0.177057	0.348756	0.098393	0.215755	0.213642	-0.003042	0.130791	0.007308	0.433140	0.018591
0.178412	0.343417	0.102133	0.221600	0.203746	-0.003824	0.131747	0.007103	0.430522	0.018679
0.179645	0.338810	0.105892	0.227567	0.194079	-0.004547	0.132631	0.006899	0.427548	0.018773
0.180755	0.334900	0.109659	0.233643	0.184649	-0.005209	0.133441	0.006697	0.424176	0.018870
0.181740	0.331653	0.113417	0.239811	0.175462	-0.005806	0.134177	0.006497	0.420361	0.018966
0.182598	0.329033	0.117150	0.246054	0.166519	-0.006334	0.134838	0.006300	0.416057	0.019056
0.183324	0.327006	0.120840	0.252352	0.157825	-0.006788	0.135423	0.006107	0.411227	0.019136
0.183912	0.325533	0.124469	0.258688	0.149382	-0.007164	0.135933	0.005918	0.405844	0.019204
0.184354	0.324577	0.128018	0.265044	0.141194	-0.007457	0.136372	0.005734	0.399902	0.019256
0.184643	0.324095	0.131464	0.271406	0.133266	-0.007662	0.136751	0.005555	0.393413	0.019291
0.184768	0.324039	0.134789	0.277759	0.125601	-0.007774	0.137082	0.005382	0.386396	0.019307
0.184723	0.324362	0.137971	0.284090	0.118203	-0.007787	0.137383	0.005215	0.378878	0.019304
0.184500	0.325014	0.140995	0.290382	0.111072	-0.007695	0.137669	0.005055	0.370888	0.019283
0.184097	0.325948	0.143847	0.296618	0.104210	-0.007493	0.137961	0.004902	0.362464	0.019243
0.183513	0.327126	0.146519	0.302781	0.097616	-0.007174	0.138275	0.004755	0.353644	0.019185
0.182751	0.328518	0.149004	0.308851	0.091287	-0.006731	0.138630	0.004616	0.344470	0.019109
0.181818	0.330103	0.151294	0.314806	0.085221	-0.006158	0.139042	0.004484	0.334985	0.019016
0.180722	0.331861	0.153384	0.320624	0.079414	-0.005447	0.139527	0.004359	0.325234	0.018906
0.179473	0.333771	0.155264	0.326281	0.073863	-0.004590	0.140100	0.004242	0.315261	0.018781
0.178083	0.335814	0.156925	0.331753	0.068565	-0.003581	0.140773	0.004132	0.305111	0.018642
0.176564	0.337970	0.158357	0.337009	0.063515	-0.002411	0.141559	0.004030	0.294830	0.018490
0.174928	0.340222	0.159551	0.342018	0.058711	-0.001071	0.142465	0.003934	0.284459	0.018328
0.173187	0.342558	0.160498	0.346746	0.054148	0.000447	0.143501	0.003847	0.274040	0.018156
0.171351	0.344963	0.161194	0.351164	0.049822	0.002151	0.144675	0.003766	0.263612	0.017978
0.169430	0.347426	0.161636	0.355247	0.045728	0.004052	0.145993	0.003693	0.253213	0.017795
0.167430	0.349934	0.161827	0.358975	0.041862	0.006157	0.147462	0.003628	0.242875	0.017609
0.165357	0.352473	0.161776	0.362329	0.038219	0.008478	0.149089	0.003569	0.232630	0.017423
0.163214	0.355030	0.161493	0.365294	0.034793	0.011022	0.150880	0.003518	0.222505	0.017238
0.161003	0.357585	0.160989	0.367856	0.031579	0.013800	0.152838	0.003475	0.212524	0.017055
0.158724	0.360118	0.160275	0.370001	0.028571	0.016821	0.154968	0.003439	0.202708	0.016877
0.156377	0.362606	0.159364	0.371711	0.025763	0.020093	0.157271	0.003412	0.193076	0.016706
0.153963	0.365027	0.158267	0.372971	0.023148	0.023625	0.159747	0.003394	0.183642	0.016541
0.151481	0.367361	0.157000	0.373761	0.020721	0.027426	0.162394	0.003385	0.174420	0.016384
0.148934	0.369591	0.155581	0.374065	0.018474	0.031504	0.165209	0.003385	0.165420	0.016237
0.146324	0.371703	0.154029	0.373874	0.016401	0.035868	0.168188	0.003396	0.156654	0.016100
0.143657	0.373688	0.152365	0.373183	0.014496	0.040524	0.171326	0.003418	0.148128	0.015974
0.140939	0.375541	0.150609	0.371998	0.012752	0.045481	0.174615	0.003451	0.139850	0.015858
0.138178	0.377260	0.148778	0.370332	0.011161	0.050746	0.178048	0.003495	0.131825	0.015755
0.135383	0.378845	0.146889	0.368203	0.009719	0.056326	0.181615	0.003552	0.124058	0.015663
0.132564	0.380296	0.144955	0.365635	0.008417	0.062228	0.185305	0.003621	0.116552	0.015583
0.129731	0.381609	0.142990	0.362654	0.007248	0.068458	0.189106	0.003702	0.109312	0.015516
0.126894	0.382777	0.141003	0.359289	0.006206	0.075023	0.193001	0.003797	0.102337	0.015460
0.124062	0.383791	0.139004	0.355564	0.005283	0.081927	0.196971	0.003906	0.095630	0.015416
0.121244	0.384636	0.137002	0.351502	0.004473	0.089177	0.200999	0.004029	0.089191	0.015382
0.118447	0.385300	0.135006	0.347120	0.003768	0.096774	0.205064	0.004167	0.083019	0.015359
0.115677	0.385770	0.133023	0.342435	0.003162	0.104723	0.209146	0.004321	0.077114	0.015345
0.112940	0.386038	0.131062	0.337460	0.002648	0.113024	0.213227	0.004492	0.071474	0.015340
0.110238	0.386100	0.129132	0.332209	0.002221	0.121680	0.217288	0.004680	0.066097	0.015342
0.107572	0.385957	0.127241	0.326697	0.001873	0.130689	0.221307	0.004887	0.060981	0.015352
0.104944	0.385617	0.125395	0.320936	0.001599	0.140049	0.225263	0.005113	0.056121	0.015368
0.102351	0.385092	0.123600	0.314943	0.001395	0.149756	0.229134	0.005359	0.051513	0.015390
0.099793	0.384398	0.121857	0.308733	0.001254	0.159804	0.232901	0.005626	0.047153	0.015418
0.097268	0.383553	0.120172	0.302324	0.001171	0.170186	0.236548	0.005914	0.043034	0.015451
0.094774	0.382578	0.118544	0.295738	0.001140	0.180890	0.240063	0.006223	0.039151	0.015489
0.092308	0.381493	0.116975	0.288998	0.001156	0.191903	0.243440	0.006555	0.035497	0.015531
0.089869	0.380318	0.115465	0.282132	0.001213	0.203211	0.246668	0.006910	0.032065	0.015577
0.087454	0.379070	0.114014	0.275168	0.001307	0.214795	0.249738	0.007287	0.028847	0.015626
0.085062	0.377763	0.112622	0.268132	0.001432	0.226636	0.252641	0.007688	0.025838	0.015678
0.082693	0.376407	0.111289	0.261052	0.001583	0.238710	0.255366	0.008113	0.023029	0.015731
0.080346	0.375008	0.110012	0.253949	0.001756	0.250992	0.257906	0.008562	0.020414	0.015786
0.078021	0.373566	0.108789	0.246845	0.001945	0.263453	0.260253	0.009035	0.017986	0.015841
0.075722	0.372077	0.107616	0.239757	0.002148	0.276061	0.262401	0.009533	0.015738	0.015897
0.073452	0.370534	0.106487	0.232704	0.002360	0.288780	0.264346	0.010056	0.013662	0.015951
0.071217	0.368927	0.105397	0.225701	0.002578	0.301570	0.266080	0.010605	0.011752	0.016003
0.069023	0.367245	0.104338	0.218764	0.002798	0.314387	0.267598	0.011179	0.009999	0.016053
0.066875	0.365475	0.103301	0.211905	0.003016	0.327186	0.268893	0.011779	0.008397	0.016101
0.064781	0.363606	0.102280	0.205140	0.003230	0.339918	0.269961	0.012406	0.006939	0.016145
0.062744	0.361626	0.101264	0.198480	0.003435	0.352536	0.270806	0.013059	0.005617	0.016187
0.060770	0.359528	0.100245	0.191935	0.003630	0.364996	0.271435	0.013739	0.004426	0.016225
0.058865	0.357304	0.099214	0.185512	0.003811	0.377256	0.271860	0.014447	0.003359	0.016260
0.057033	0.354951	0.098164	0.179215	0.003976	0.389282	0.272094	0.015182	0.002411	0.016293
0.055276	0.352467	0.097089	0.173049	0.004124	0.401039	0.272147	0.015945	0.001574	0.016325
0.053599	0.349852	0.095984	0.167014	0.004253	0.412494	0.272029	0.016736	0.000844	0.016355
0.052005	0.347106	0.094845	0.161116	0.004361	0.423619	0.271746	0.017554	0.000214	0.016383
0.050497	0.344232	0.093665	0.155358	0.004449	0.434390	0.271304	0.018400	-0.000322	0.016409
0.049075	0.341232	0.092438	0.149747	0.004515	0.444790	0.270708	0.019273	-0.000769	0.016434
0.047744	0.338109	0.091158	0.144290	0.004559	0.454813	0.269958	0.020172	-0.001134	0.016458
0.046505	0.334869	0.089819	0.138993	0.004580	0.464456	0.269054	0.021096	-0.001420	0.016479
0.045361	0.331516	0.088419	0.133863	0.004579	0.473721	0.267993	0.022044	-0.001634	0.016500
0.044314	0.328055	0.086956	0.128905	0.004554	0.482616	0.266780	0.023014	-0.001779	0.016519
0.043369	0.324488	0.085435	0.124123	0.004505	0.491159	0.265418	0.024006	-0.001860	0.016537
0.042527	0.320814	0.083861	0.119520	0.004432	0.499377	0.263918	0.025017	-0.001882	0.016554
0.041792	0.317027	0.082244	0.115098	0.004336	0.507307	0.262290	0.026045	-0.001847	0.016569
0.041168	0.313118	0.080594	0.110857	0.004216	0.514990	0.260549	0.027089	-0.001760	0.016582
0.040658	0.309078	0.078921	0.106799	0.004073	0.522462	0.258708	0.028148	-0.001622	0.016591
0.040267	0.304895	0.077233	0.102923	0.003908	0.529758	0.256787	0.029219	-0.001438	0.016597
0.039998	0.300560	0.075540	0.099226	0.003720	0.536908	0.254803	0.030301	-0.001210	0.016598
0.039858	0.296068	0.073850	0.095705	0.003511	0.543937	0.252777	0.031392	-0.000942	0.016592
0.039849	0.291415	0.072168	0.092358	0.003281	0.550861	0.250729	0.032489	-0.000635	0.016579
0.039976	0.286605	0.070502	0.089184	0.003031	0.557693	0.248683	0.033590	-0.000292	0.016556
0.040245	0.281646	0.068856	0.086180	0.002762	0.564438	0.246666	0.034696	0.000084	0.016524
0.040657	0.276548	0.067237	0.083347	0.002476	0.571091	0.244706	0.035808	0.000491	0.016480
0.041217	0.271330	0.065649	0.080684	0.002174	0.577643	0.242830	0.036924	0.000928	0.016425
0.041929	0.266011	0.064097	0.078191	0.001857	0.584075	0.241063	0.038048	0.001393	0.016357
0.042794	0.260609	0.062585	0.075867	0.001529	0.590359	0.239424	0.039182	0.001887	0.016275
0.043816	0.255146	0.061121	0.073712	0.001190	0.596463	0.237932	0.040328	0.002407	0.016179
0.044998	0.249640	0.059709	0.071725	0.000845	0.602344	0.236604	0.041493	0.002955	0.016070
0.046343	0.244108	0.058355	0.069906	0.000495	0.607960	0.235452	0.042681	0.003528	0.015946
0.047851	0.238564	0.057065	0.068256	0.000143	0.613269	0.234490	0.043899	0.004128	0.015811
0.049525	0.233018	0.055843	0.066775	-0.000208	0.618234	0.233725	0.045152	0.004753	0.015665
0.051364	0.227480	0.054695	0.065466	-0.000555	0.622834	0.233167	0.046447	0.005405	0.015509
0.053369	0.221956	0.053626	0.064330	-0.000895	0.627058	0.232822	0.047787	0.006082	0.015345
0.055540	0.216452	0.052641	0.063367	-0.001226	0.630903	0.232697	0.049178	0.006785	0.015174
0.057876	0.210975	0.051745	0.062579	-0.001543	0.634362	0.232800	0.050623	0.007515	0.014998
0.060379	0.205531	0.050942	0.061965	-0.001845	0.637428	0.233137	0.052125	0.008273	0.014816
0.063049	0.200129	0.050239	0.061525	-0.002125	0.640086	0.233710	0.053685	0.009061	0.014631
0.065887	0.194778	0.049639	0.061259	-0.002382	0.642324	0.234522	0.055307	0.009882	0.014443
0.068894	0.189489	0.049149	0.061167	-0.002611	0.644133	0.235569	0.056989	0.010738	0.014253
0.072069	0.184276	0.048773	0.061248	-0.002807	0.645514	0.236847	0.058733	0.011633	0.014062
0.075416	0.179152	0.048518	0.061507	-0.002967	0.646474	0.238347	0.060540	0.012570	0.013870
0.078933	0.174133	0.048387	0.061947	-0.003085	0.647033	0.240059	0.062409	0.013553	0.013679
0.082623	0.169234	0.048387	0.062573	-0.003157	0.647237	0.241971	0.064338	0.014585	0.013489
0.086484	0.164467	0.048521	0.063393	-0.003177	0.647158	0.244066	0.066327	0.015671	0.013301
0.090516	0.159842	0.048794	0.064414	-0.003140	0.646892	0.246326	0.068373	0.016813	0.013116
0.094719	0.155371	0.049209	0.065644	-0.003042	0.646546	0.248732	0.070473	0.018016	0.012936
0.099092	0.151060	0.049770	0.067089	-0.002875	0.646226	0.251261	0.072621	0.019282	0.012763
0.103633	0.146915	0.050477	0.068758	-0.002635	0.646031	0.253896	0.074813	0.020615	0.012598
0.108341	0.142944	0.051333	0.070659	-0.002316	0.646052	0.256623	0.077045	0.022018	0.012442
0.113214	0.139151	0.052339	0.072797	-0.001910	0.646377	0.259431	0.079311	0.023494	0.012297
0.118250	0.135540	0.053495	0.075179	-0.001413	0.647088	0.262311	0.081612	0.025045	0.012164
0.123444	0.132117	0.054803	0.077811	-0.000818	0.648261	0.265252	0.083949	0.026674	0.012046
0.128793	0.128887	0.056263	0.080699	-0.000118	0.649970	0.268244	0.086324	0.028382	0.011942
0.134293	0.125856	0.057877	0.083847	0.000695	0.652280	0.271275	0.088743	0.030172	0.011855
0.139940	0.123030	0.059648	0.087263	0.001628	0.655251	0.274329	0.091211	0.032046	0.011785
0.145730	0.120414	0.061579	0.090951	0.002688	0.658939	0.277392	0.093735	0.034004	0.011736
0.151659	0.118015	0.063675	0.094919	0.003883	0.663391	0.280444	0.096322	0.036048	0.011707
0.157723	0.115834	0.065939	0.099171	0.005220	0.668648	0.283470	0.098979	0.038179	0.011700
0.163914	0.113873	0.068376	0.103712	0.006706	0.674744	0.286452	0.101714	0.040398	0.011717
0.170226	0.112136	0.070989	0.108548	0.008351	0.681710	0.289377	0.104535	0.042707	0.011759
0.176647	0.110622	0.073781	0.113680	0.010159	0.689568	0.292234	0.107450	0.045105	0.011827
0.183166	0.109333	0.076754	0.119110	0.012140	0.698334	0.295019	0.110468	0.047594	0.011923
0.189769	0.108272	0.079909	0.124842	0.014300	0.708015	0.297734	0.113595	0.050173	0.012046
0.196440	0.107439	0.083246	0.130874	0.016647	0.718612	0.300386	0.116841	0.052843	0.012199
0.203163	0.106839	0.086764	0.137209	0.019186	0.730119	0.302985	0.120214	0.055604	0.012382
0.209920	0.106472	0.090461	0.143847	0.021925	0.742522	0.305548	0.123722	0.058456	0.012597
0.216695	0.106342	0.094334	0.150788	0.024871	0.755804	0.308101	0.127372	0.061399	0.012844
0.223472	0.106451	0.098381	0.158031	0.028031	0.769935	0.310675	0.131170	0.064434	0.013125
0.230235	0.106801	0.102601	0.165576	0.031412	0.784877	0.313302	0.135120	0.067561	0.013441
0.236968	0.107395	0.106991	0.173421	0.035020	0.800584	0.316013	0.139227	0.070781	0.013793
0.243657	0.108234	0.111553	0.181564	0.038864	0.817004	0.318839	0.143494	0.074095	0.014181
0.250287	0.109317	0.116288	0.190001	0.042951	0.834088	0.321808	0.147926	0.077503	0.014608
0.256841	0.110644	0.121201	0.198726	0.047286	0.851793	0.324947	0.152523	0.081006	0.015074
0.263305	0.112212	0.126294	0.207734	0.051876	0.870087	0.328285	0.157288	0.084605	0.015581
